# TIME w/ LS370, calibrated against X107797
# Calibration data taken from 20190803 to 20200109
# Constrained by data from 0.241K to 297.7K, extrapolated elsewhere
# Calibration generated 2020-01-09 13:13:23.824164, verified monotonic
# R[Ohms] T[K]
35.590 325
35.641 324
35.692 323
35.744 322
35.797 321
35.850 320
35.904 319
35.958 318
36.013 317
36.069 316
36.125 315
36.182 314
36.239 313
36.297 312
36.356 311
36.415 310
36.475 309
36.536 308
36.597 307
36.659 306
36.721 305
36.784 304
36.848 303
36.912 302
36.977 301
37.043 300
37.109 299
37.175 298
37.207 297
37.284 296
37.357 295
37.428 294
37.499 293
37.575 292
37.650 291
37.723 290
37.795 289
37.873 288
37.952 287
38.028 286
38.106 285
38.183 284
38.261 283
38.340 282
38.419 281
38.497 280
38.577 279
38.657 278
38.737 277
38.818 276
38.900 275
38.982 274
39.065 273
39.147 272
39.231 271
39.316 270
39.401 269
39.485 268
39.570 267
39.656 266
39.743 265
39.831 264
39.918 263
40.008 262
40.096 261
40.185 260
40.275 259
40.365 258
40.458 257
40.550 256
40.642 255
40.736 254
40.829 253
40.922 252
41.017 251
41.113 250
41.209 249
41.307 248
41.404 247
41.501 246
41.598 245
41.697 244
41.796 243
41.897 242
41.998 241
42.100 240
42.202 239
42.305 238
42.408 237
42.512 236
42.618 235
42.723 234
42.829 233
42.935 232
43.042 231
43.152 230
43.261 229
43.370 228
43.481 227
43.594 226
43.706 225
43.818 224
43.933 223
44.047 222
44.161 221
44.278 220
44.394 219
44.511 218
44.630 217
44.747 216
44.867 215
44.989 214
45.111 213
45.234 212
45.357 211
45.481 210
45.605 209
45.732 208
45.859 207
45.987 206
46.115 205
46.244 204
46.374 203
46.506 202
46.640 201
46.772 200
46.906 199
47.042 198
47.179 197
47.316 196
47.453 195
47.592 194
47.734 193
47.875 192
48.017 191
48.162 190
48.308 189
48.452 188
48.600 187
48.751 186
48.900 185
49.050 184
49.200 183
49.355 182
49.510 181
49.665 180
49.823 179
49.981 178
50.139 177
50.300 176
50.462 175
50.625 174
50.790 173
50.954 172
51.120 171
51.289 170
51.458 169
51.629 168
51.803 167
51.977 166
52.152 165
52.328 164
52.507 163
52.687 162
52.867 161
53.049 160
53.233 159
53.419 158
53.607 157
53.794 156
53.985 155
54.176 154
54.369 153
54.569 152
54.755 151
54.936 150
55.133 149
55.340 148
55.555 147
55.769 146
55.982 145
56.191 144
56.400 143
56.613 142
56.830 141
57.049 140
57.269 139
57.492 138
57.713 137
57.942 136
58.176 135
58.405 134
58.636 133
58.872 132
59.113 131
59.352 130
59.590 129
59.838 128
60.086 127
60.332 126
60.588 125
60.847 124
61.105 123
61.365 122
61.625 121
61.891 120
62.161 119
62.429 118
62.704 117
62.988 116
63.284 115
63.607 114
63.924 113
64.167 112
64.412 111
64.708 110
65.013 109
65.321 108
65.627 107
65.936 106
66.250 105
66.572 104
66.895 103
67.218 102
67.551 101
67.889 100
68.227 99
68.576 98
68.925 97
69.279 96
69.640 95
70.001 94
70.368 93
70.743 92
71.121 91
71.502 90
71.894 89
72.283 88
72.683 87
73.098 86
73.510 85
73.930 84
74.353 83
74.782 82
75.224 81
75.663 80
76.106 79
76.576 78
77.053 77
77.532 76
78.018 75
78.513 74
79.016 73
79.527 72
80.043 71
80.569 70
80.673 69.8
80.777 69.6
80.885 69.4
80.995 69.2
81.109 69
81.220 68.8
81.327 68.6
81.438 68.4
81.549 68.2
81.654 68
81.762 67.8
81.876 67.6
81.991 67.4
82.101 67.2
82.219 67
82.334 66.8
82.447 66.6
82.562 66.4
82.672 66.2
82.789 66
82.904 65.8
83.017 65.6
83.132 65.4
83.248 65.2
83.365 65
83.487 64.8
83.608 64.6
83.725 64.4
83.844 64.2
83.957 64
84.075 63.8
84.205 63.6
84.325 63.4
84.443 63.2
84.573 63
84.695 62.8
84.812 62.6
84.933 62.4
85.065 62.2
85.191 62
85.317 61.8
85.433 61.6
85.550 61.4
85.693 61.2
85.829 61
85.955 60.8
86.076 60.6
86.204 60.4
86.335 60.2
86.462 60
86.588 59.8
86.716 59.6
86.855 59.4
86.990 59.2
87.120 59
87.256 58.8
87.393 58.6
87.527 58.4
87.661 58.2
87.799 58
87.944 57.8
88.086 57.6
88.206 57.4
88.338 57.2
88.487 57
88.618 56.8
88.758 56.6
88.903 56.4
89.041 56.2
89.177 56
89.324 55.8
89.470 55.6
89.613 55.4
89.754 55.2
89.899 55
90.049 54.8
90.193 54.6
90.344 54.4
90.491 54.2
90.637 54
90.793 53.8
90.945 53.6
91.087 53.4
91.244 53.2
91.393 53
91.534 52.8
91.689 52.6
91.847 52.4
92.014 52.2
92.176 52
92.330 51.8
92.492 51.6
92.651 51.4
92.803 51.2
92.958 51
93.122 50.8
93.296 50.6
93.454 50.4
93.606 50.2
93.769 50
93.936 49.8
94.113 49.6
94.284 49.4
94.446 49.2
94.606 49
94.765 48.8
94.935 48.6
95.120 48.4
95.290 48.2
95.459 48
95.639 47.8
95.815 47.6
95.989 47.4
96.163 47.2
96.348 47
96.520 46.8
96.695 46.6
96.885 46.4
97.064 46.2
97.241 46
97.424 45.8
97.608 45.6
97.783 45.4
97.973 45.2
98.171 45
98.364 44.8
98.556 44.6
98.741 44.4
98.920 44.2
99.118 44
99.315 43.8
99.492 43.6
99.686 43.4
99.887 43.2
100.085 43
100.307 42.8
100.515 42.6
100.703 42.4
100.899 42.2
101.100 42
101.317 41.8
101.523 41.6
101.733 41.4
101.942 41.2
102.140 41
102.356 40.8
102.571 40.6
102.777 40.4
103.007 40.2
103.228 40
103.424 39.8
103.629 39.6
103.871 39.4
104.105 39.2
104.300 39
104.539 38.8
104.769 38.6
104.996 38.4
105.235 38.2
105.461 38
105.689 37.8
105.931 37.6
106.174 37.4
106.397 37.2
106.635 37
106.876 36.8
107.114 36.6
107.374 36.4
107.611 36.2
107.848 36
108.090 35.8
108.325 35.6
108.585 35.4
108.841 35.2
109.095 35
109.355 34.8
109.618 34.6
109.874 34.4
110.136 34.2
110.403 34
110.666 33.8
110.939 33.6
111.211 33.4
111.479 33.2
111.747 33
112.021 32.8
112.303 32.6
112.585 32.4
112.864 32.2
113.148 32
113.429 31.8
113.714 31.6
114.009 31.4
114.296 31.2
114.588 31
114.896 30.8
115.196 30.6
115.485 30.4
115.792 30.2
116.116 30
116.270 29.9
116.421 29.8
116.568 29.7
116.725 29.6
116.886 29.5
117.044 29.4
117.201 29.3
117.360 29.2
117.526 29.1
117.675 29
117.833 28.9
118.001 28.8
118.160 28.7
118.318 28.6
118.486 28.5
118.651 28.4
118.818 28.3
118.989 28.2
119.153 28.1
119.313 28
119.475 27.9
119.644 27.8
119.819 27.7
119.997 27.6
120.169 27.5
120.330 27.4
120.500 27.3
120.676 27.2
120.841 27.1
121.012 27
121.200 26.9
121.380 26.8
121.548 26.7
121.723 26.6
121.890 26.5
122.064 26.4
122.253 26.3
122.443 26.2
122.626 26.1
122.806 26
122.983 25.9
123.167 25.8
123.350 25.7
123.537 25.6
123.741 25.5
123.925 25.4
124.105 25.3
124.299 25.2
124.487 25.1
124.675 25
124.882 24.9
125.063 24.8
125.253 24.7
125.443 24.6
125.631 24.5
125.838 24.4
126.035 24.3
126.233 24.2
126.438 24.1
126.643 24
126.842 23.9
127.044 23.8
127.251 23.7
127.449 23.6
127.659 23.5
127.880 23.4
128.084 23.3
128.287 23.2
128.512 23.1
128.713 23
128.914 22.9
129.149 22.8
129.357 22.7
129.552 22.6
129.767 22.5
129.994 22.4
130.230 22.3
130.458 22.2
130.671 22.1
130.895 22
131.121 21.9
131.351 21.8
131.577 21.7
131.797 21.6
132.027 21.5
132.254 21.4
132.495 21.3
132.737 21.2
132.972 21.1
133.199 21
133.431 20.9
133.673 20.8
133.917 20.7
134.153 20.6
134.398 20.5
134.660 20.4
134.906 20.3
135.158 20.2
135.411 20.1
135.665 20
135.915 19.9
136.156 19.8
136.423 19.7
136.691 19.6
136.955 19.5
137.197 19.4
137.460 19.3
137.745 19.2
138.022 19.1
138.289 19
138.565 18.9
138.837 18.8
139.090 18.7
139.362 18.6
139.641 18.5
139.939 18.4
140.239 18.3
140.491 18.2
140.773 18.1
141.054 18
141.336 17.9
141.643 17.8
141.954 17.7
142.276 17.6
142.584 17.5
142.841 17.4
143.138 17.3
143.455 17.2
143.769 17.1
144.062 17
144.358 16.9
144.696 16.8
145.044 16.7
145.337 16.6
145.638 16.5
145.981 16.4
146.317 16.3
146.641 16.2
146.984 16.1
147.326 16
147.674 15.9
148.019 15.8
148.368 15.7
148.709 15.6
149.052 15.5
149.419 15.4
149.798 15.3
150.169 15.2
150.489 15.1
150.847 15
151.211 14.9
151.598 14.8
152.007 14.7
152.374 14.6
152.747 14.5
153.171 14.4
153.590 14.3
153.987 14.2
154.343 14.1
154.744 14
155.182 13.9
155.603 13.8
155.997 13.7
156.412 13.6
156.835 13.5
157.289 13.4
157.751 13.3
158.203 13.2
158.636 13.1
159.066 13
159.541 12.9
159.985 12.8
160.428 12.7
160.914 12.6
161.407 12.5
161.886 12.4
162.383 12.3
162.889 12.2
163.379 12.1
163.886 12
164.393 11.9
164.914 11.8
165.472 11.7
166.009 11.6
166.542 11.5
167.088 11.4
167.642 11.3
168.198 11.2
168.762 11.1
169.341 11
169.939 10.9
170.536 10.8
171.122 10.7
171.732 10.6
172.356 10.5
172.969 10.4
173.595 10.3
174.251 10.2
174.899 10.1
175.559 10
176.253 9.9
176.962 9.8
177.631 9.7
178.320 9.6
179.068 9.5
179.805 9.4
180.545 9.3
181.296 9.2
182.044 9.1
182.826 9
183.639 8.9
184.445 8.8
185.251 8.7
186.098 8.6
186.974 8.5
187.847 8.4
188.744 8.3
189.658 8.2
190.564 8.1
191.501 8
191.694 7.98
191.884 7.96
192.082 7.94
192.297 7.92
192.494 7.9
192.688 7.88
192.902 7.86
193.076 7.84
193.246 7.82
193.460 7.8
193.669 7.78
193.859 7.76
194.060 7.74
194.248 7.72
194.443 7.7
194.657 7.68
194.872 7.66
195.063 7.64
195.265 7.62
195.489 7.6
195.688 7.58
195.881 7.56
196.080 7.54
196.293 7.52
196.523 7.5
196.729 7.48
196.925 7.46
197.153 7.44
197.379 7.42
197.583 7.4
197.791 7.38
198.030 7.36
198.255 7.34
198.453 7.32
198.675 7.3
198.906 7.28
199.140 7.26
199.371 7.24
199.582 7.22
199.784 7.2
200.005 7.18
200.236 7.16
200.456 7.14
200.691 7.12
200.917 7.1
201.136 7.08
201.389 7.06
201.631 7.04
201.851 7.02
202.100 7
202.338 6.98
202.559 6.96
202.801 6.94
203.087 6.92
203.371 6.9
203.624 6.88
203.865 6.86
204.105 6.84
204.348 6.82
204.577 6.8
204.823 6.78
205.086 6.76
205.348 6.74
205.604 6.72
205.852 6.7
206.105 6.68
206.345 6.66
206.594 6.64
206.868 6.62
207.129 6.6
207.392 6.58
207.664 6.56
207.928 6.54
208.192 6.52
208.455 6.5
208.719 6.48
208.995 6.46
209.263 6.44
209.537 6.42
209.811 6.4
210.076 6.38
210.352 6.36
210.632 6.34
210.913 6.32
211.198 6.3
211.479 6.28
211.751 6.26
212.039 6.24
212.344 6.22
212.625 6.2
212.914 6.18
213.210 6.16
213.501 6.14
213.805 6.12
214.088 6.1
214.380 6.08
214.682 6.06
214.979 6.04
215.291 6.02
215.586 6
215.891 5.98
216.210 5.96
216.504 5.94
216.807 5.92
217.135 5.9
217.448 5.88
217.762 5.86
218.078 5.84
218.389 5.82
218.719 5.8
219.049 5.78
219.376 5.76
219.701 5.74
220.022 5.72
220.351 5.7
220.693 5.68
221.036 5.66
221.373 5.64
221.706 5.62
222.059 5.6
222.398 5.58
222.735 5.56
223.094 5.54
223.449 5.52
223.801 5.5
224.142 5.48
224.500 5.46
224.860 5.44
225.210 5.42
225.564 5.4
225.921 5.38
226.301 5.36
226.695 5.34
227.050 5.32
227.407 5.3
227.805 5.28
228.191 5.26
228.559 5.24
228.940 5.22
229.332 5.2
229.709 5.18
230.125 5.16
230.514 5.14
230.864 5.12
231.279 5.1
231.696 5.08
232.103 5.06
232.517 5.04
232.938 5.02
233.370 5
233.785 4.98
234.199 4.96
234.608 4.94
235.027 4.92
235.489 4.9
235.917 4.88
236.324 4.86
236.768 4.84
237.221 4.82
237.669 4.8
238.107 4.78
238.550 4.76
239.003 4.74
239.454 4.72
239.920 4.7
240.396 4.68
240.861 4.66
241.334 4.64
241.817 4.62
242.297 4.6
242.775 4.58
243.255 4.56
243.742 4.54
244.239 4.52
244.737 4.5
245.274 4.48
245.769 4.46
246.224 4.44
246.740 4.42
247.266 4.4
247.785 4.38
248.310 4.36
248.832 4.34
249.371 4.32
249.901 4.3
250.397 4.28
250.941 4.26
251.552 4.24
252.119 4.22
252.637 4.2
253.201 4.18
253.775 4.16
254.341 4.14
254.928 4.12
255.483 4.1
256.057 4.08
256.664 4.06
257.243 4.04
257.851 4.02
258.483 4
259.095 3.98
259.697 3.96
260.316 3.94
260.957 3.92
261.596 3.9
262.237 3.88
262.896 3.86
263.546 3.84
264.192 3.82
264.866 3.8
265.553 3.78
266.236 3.76
266.912 3.74
267.597 3.72
268.299 3.7
269.005 3.68
269.727 3.66
270.455 3.64
271.174 3.62
271.867 3.6
272.616 3.58
273.371 3.56
274.132 3.54
274.903 3.52
275.653 3.5
276.476 3.48
277.266 3.46
278.034 3.44
278.865 3.42
279.703 3.4
280.516 3.38
281.318 3.36
282.143 3.34
282.990 3.32
283.818 3.3
284.692 3.28
285.603 3.26
286.495 3.24
287.395 3.22
288.310 3.2
289.224 3.18
290.175 3.16
291.105 3.14
292.014 3.12
293.016 3.1
294.002 3.08
295.014 3.06
296.041 3.04
296.993 3.02
297.991 3
299.065 2.98
300.119 2.96
301.151 2.94
302.274 2.92
303.435 2.9
304.512 2.88
305.570 2.86
306.712 2.84
307.831 2.82
308.967 2.8
310.265 2.78
311.447 2.76
312.544 2.74
313.796 2.72
315.059 2.7
316.291 2.68
317.586 2.66
318.909 2.64
320.223 2.62
321.550 2.6
322.914 2.58
324.315 2.56
325.732 2.54
327.124 2.52
328.507 2.5
330.001 2.48
331.550 2.46
333.071 2.44
334.630 2.42
336.080 2.4
337.559 2.38
339.215 2.36
340.921 2.34
342.558 2.32
344.198 2.3
346.010 2.28
347.766 2.26
349.547 2.24
351.332 2.22
353.109 2.2
354.977 2.18
356.859 2.16
358.860 2.14
360.800 2.12
362.705 2.1
364.774 2.08
366.825 2.06
368.835 2.04
371.018 2.02
373.290 2
374.414 1.99
375.540 1.98
376.669 1.97
377.817 1.96
378.973 1.95
380.142 1.94
381.314 1.93
382.497 1.92
383.693 1.91
384.899 1.9
386.143 1.89
387.382 1.88
388.646 1.87
389.910 1.86
391.194 1.85
392.511 1.84
393.820 1.83
395.132 1.82
396.466 1.81
397.848 1.8
399.228 1.79
400.597 1.78
401.985 1.77
403.359 1.76
404.779 1.75
406.250 1.74
407.746 1.73
409.228 1.72
410.706 1.71
412.221 1.7
413.743 1.69
415.314 1.68
416.928 1.67
418.538 1.66
420.116 1.65
421.718 1.64
423.367 1.63
425.070 1.62
426.837 1.61
428.593 1.6
430.330 1.59
432.042 1.58
433.757 1.57
435.505 1.56
437.309 1.55
439.194 1.54
441.113 1.53
443.065 1.52
445.028 1.51
446.984 1.5
448.977 1.49
450.995 1.48
453.030 1.47
455.077 1.46
457.154 1.45
459.266 1.44
461.404 1.43
463.620 1.42
465.862 1.41
468.118 1.4
470.398 1.39
472.712 1.38
475.059 1.37
477.496 1.36
480.020 1.35
482.521 1.34
485.007 1.33
487.512 1.32
490.088 1.31
492.644 1.3
495.327 1.29
498.104 1.28
500.939 1.27
503.725 1.26
506.596 1.25
509.565 1.24
512.505 1.23
515.533 1.22
518.511 1.21
521.597 1.2
524.846 1.19
528.173 1.18
531.497 1.17
534.852 1.16
538.332 1.15
541.956 1.14
545.777 1.13
549.502 1.12
553.019 1.11
556.664 1.1
560.407 1.09
564.307 1.08
568.349 1.07
572.514 1.06
576.659 1.05
581.105 1.04
585.749 1.03
590.022 1.02
594.279 1.01
598.821 1
603.592 0.99
608.576 0.98
613.660 0.97
618.706 0.96
623.599 0.95
628.857 0.94
634.525 0.93
640.119 0.92
645.787 0.91
651.628 0.9
657.453 0.89
663.586 0.88
669.931 0.87
676.535 0.86
683.174 0.85
689.865 0.84
696.921 0.83
704.055 0.82
711.737 0.81
719.449 0.8
720.199 0.799
720.950 0.798
721.701 0.797
722.454 0.796
723.209 0.795
723.969 0.794
724.732 0.793
725.498 0.792
726.265 0.791
727.031 0.79
727.800 0.789
728.571 0.788
729.345 0.787
730.121 0.786
730.899 0.785
731.678 0.784
732.457 0.783
733.235 0.782
734.017 0.781
734.808 0.78
735.607 0.779
736.393 0.778
737.176 0.777
737.963 0.776
738.754 0.775
739.549 0.774
740.352 0.773
741.162 0.772
741.980 0.771
742.804 0.77
743.635 0.769
744.473 0.768
745.328 0.767
746.200 0.766
747.077 0.765
747.964 0.764
748.852 0.763
749.748 0.762
750.655 0.761
751.559 0.76
752.461 0.759
753.373 0.758
754.286 0.757
755.195 0.756
756.100 0.755
757.001 0.754
757.899 0.753
758.799 0.752
759.704 0.751
760.613 0.75
761.529 0.749
762.452 0.748
763.381 0.747
764.314 0.746
765.252 0.745
766.193 0.744
767.134 0.743
768.079 0.742
769.022 0.741
769.968 0.74
770.917 0.739
771.872 0.738
772.825 0.737
773.769 0.736
774.714 0.735
775.662 0.734
776.610 0.733
777.558 0.732
778.504 0.731
779.439 0.73
780.376 0.729
781.316 0.728
782.244 0.727
783.157 0.726
784.081 0.725
785.051 0.724
786.077 0.723
787.075 0.722
788.037 0.721
789.004 0.72
789.966 0.719
790.921 0.718
791.879 0.717
792.837 0.716
793.902 0.715
794.946 0.714
795.950 0.713
796.955 0.712
797.961 0.711
798.971 0.71
799.984 0.709
801.000 0.708
802.017 0.707
803.036 0.706
804.058 0.705
805.084 0.704
806.114 0.703
807.144 0.702
808.177 0.701
809.218 0.7
810.267 0.699
811.321 0.698
812.377 0.697
813.435 0.696
814.499 0.695
815.573 0.694
816.652 0.693
817.734 0.692
818.817 0.691
819.903 0.69
820.994 0.689
822.091 0.688
823.188 0.687
824.289 0.686
825.390 0.685
826.493 0.684
827.599 0.683
828.713 0.682
829.835 0.681
830.957 0.68
832.074 0.679
833.185 0.678
834.312 0.677
835.450 0.676
836.592 0.675
837.738 0.674
838.886 0.673
840.036 0.672
841.191 0.671
842.348 0.67
843.510 0.669
844.681 0.668
845.862 0.667
847.046 0.666
848.229 0.665
849.416 0.664
850.607 0.663
851.810 0.662
853.009 0.661
854.203 0.66
855.410 0.659
856.625 0.658
857.832 0.657
859.043 0.656
860.261 0.655
861.484 0.654
862.712 0.653
863.943 0.652
865.186 0.651
866.430 0.65
867.675 0.649
868.927 0.648
870.184 0.647
871.447 0.646
872.714 0.645
873.981 0.644
875.256 0.643
876.538 0.642
877.814 0.641
879.095 0.64
880.390 0.639
881.696 0.638
882.995 0.637
884.299 0.636
885.612 0.635
886.924 0.634
888.241 0.633
889.569 0.632
890.902 0.631
892.241 0.63
893.594 0.629
894.949 0.628
896.307 0.627
897.672 0.626
899.042 0.625
900.417 0.624
901.798 0.623
903.184 0.622
904.578 0.621
905.972 0.62
907.371 0.619
908.777 0.618
910.190 0.617
911.606 0.616
913.021 0.615
914.448 0.614
915.876 0.613
917.306 0.612
918.745 0.611
920.192 0.61
921.646 0.609
923.105 0.608
924.569 0.607
926.045 0.606
927.524 0.605
929.006 0.604
930.495 0.603
931.993 0.602
933.501 0.601
935.011 0.6
936.527 0.599
938.047 0.598
939.570 0.597
941.103 0.596
942.646 0.595
944.193 0.594
945.744 0.593
947.298 0.592
948.858 0.591
950.428 0.59
952.003 0.589
953.583 0.588
955.170 0.587
956.765 0.586
958.368 0.585
959.973 0.584
961.588 0.583
963.213 0.582
964.841 0.581
966.476 0.58
968.116 0.579
969.766 0.578
971.423 0.577
973.082 0.576
974.748 0.575
976.420 0.574
978.096 0.573
979.785 0.572
981.482 0.571
983.182 0.57
984.891 0.569
986.608 0.568
988.333 0.567
990.068 0.566
991.811 0.565
993.561 0.564
995.322 0.563
997.088 0.562
998.861 0.561
1000.642 0.56
1002.428 0.559
1004.221 0.558
1006.034 0.557
1007.863 0.556
1009.696 0.555
1011.530 0.554
1013.345 0.553
1015.169 0.552
1017.036 0.551
1018.911 0.55
1020.797 0.549
1022.698 0.548
1024.594 0.547
1026.496 0.546
1028.408 0.545
1030.320 0.544
1032.246 0.543
1034.168 0.542
1036.093 0.541
1038.038 0.54
1039.994 0.539
1041.959 0.538
1043.931 0.537
1045.912 0.536
1047.901 0.535
1049.891 0.534
1051.896 0.533
1053.907 0.532
1055.916 0.531
1057.932 0.53
1059.957 0.529
1061.993 0.528
1064.047 0.527
1066.091 0.526
1068.142 0.525
1070.213 0.524
1072.312 0.523
1074.444 0.522
1076.562 0.521
1078.684 0.52
1080.819 0.519
1082.962 0.518
1085.107 0.517
1087.271 0.516
1089.435 0.515
1091.613 0.514
1093.803 0.513
1096.002 0.512
1098.182 0.511
1100.377 0.51
1102.623 0.509
1104.861 0.508
1107.119 0.507
1109.424 0.506
1111.732 0.505
1114.044 0.504
1116.362 0.503
1118.661 0.502
1120.963 0.501
1123.317 0.5
1125.658 0.499
1128.016 0.498
1130.409 0.497
1132.821 0.496
1135.258 0.495
1137.697 0.494
1140.130 0.493
1142.542 0.492
1144.996 0.491
1147.500 0.49
1150.027 0.489
1152.568 0.488
1155.107 0.487
1157.646 0.486
1160.207 0.485
1162.783 0.484
1165.365 0.483
1167.965 0.482
1170.577 0.481
1173.179 0.48
1175.757 0.479
1178.400 0.478
1181.055 0.477
1183.742 0.476
1186.465 0.475
1189.155 0.474
1191.832 0.473
1194.574 0.472
1197.321 0.471
1200.079 0.47
1202.882 0.469
1205.706 0.468
1208.532 0.467
1211.358 0.466
1214.465 0.465
1217.526 0.464
1220.236 0.463
1222.991 0.462
1225.774 0.461
1228.576 0.46
1231.649 0.459
1234.762 0.458
1237.494 0.457
1240.263 0.456
1243.065 0.455
1245.912 0.454
1248.828 0.453
1251.830 0.452
1254.903 0.451
1257.968 0.45
1261.058 0.449
1264.198 0.448
1267.362 0.447
1270.561 0.446
1273.779 0.445
1277.026 0.444
1280.303 0.443
1283.518 0.442
1286.766 0.441
1290.176 0.44
1293.578 0.439
1297.018 0.438
1300.501 0.437
1303.994 0.436
1307.579 0.435
1311.195 0.434
1314.678 0.433
1318.168 0.432
1321.735 0.431
1325.336 0.43
1328.959 0.429
1332.615 0.428
1336.261 0.427
1339.935 0.426
1343.659 0.425
1347.498 0.424
1351.419 0.423
1355.085 0.422
1358.741 0.421
1362.595 0.42
1366.463 0.419
1370.293 0.418
1374.238 0.417
1378.187 0.416
1382.066 0.415
1385.927 0.414
1389.852 0.413
1393.916 0.412
1397.965 0.411
1402.040 0.41
1406.163 0.409
1410.261 0.408
1414.397 0.407
1418.537 0.406
1422.664 0.405
1426.800 0.404
1430.922 0.403
1435.063 0.402
1439.295 0.401
1443.575 0.4
1447.833 0.399
1452.140 0.398
1456.475 0.397
1460.826 0.396
1465.196 0.395
1469.556 0.394
1473.943 0.393
1478.389 0.392
1482.902 0.391
1487.450 0.39
1492.026 0.389
1496.595 0.388
1501.208 0.387
1505.832 0.386
1510.491 0.385
1515.226 0.384
1520.022 0.383
1524.859 0.382
1529.716 0.381
1534.625 0.38
1539.554 0.379
1544.590 0.378
1549.662 0.377
1554.815 0.376
1560.027 0.375
1565.295 0.374
1570.632 0.373
1576.043 0.372
1581.466 0.371
1586.963 0.37
1592.547 0.369
1598.145 0.368
1603.826 0.367
1609.594 0.366
1615.425 0.365
1620.992 0.364
1626.493 0.363
1632.338 0.362
1638.245 0.361
1644.198 0.36
1650.201 0.359
1655.943 0.358
1661.566 0.357
1667.573 0.356
1673.647 0.355
1679.789 0.354
1685.953 0.353
1692.105 0.352
1698.318 0.351
1704.565 0.35
1710.873 0.349
1717.260 0.348
1723.674 0.347
1730.151 0.346
1736.663 0.345
1743.178 0.344
1749.675 0.343
1756.099 0.342
1762.560 0.341
1769.141 0.34
1775.699 0.339
1782.364 0.338
1789.118 0.337
1795.930 0.336
1802.808 0.335
1809.657 0.334
1816.509 0.333
1823.576 0.332
1830.751 0.331
1837.956 0.33
1845.236 0.329
1852.593 0.328
1860.027 0.327
1867.583 0.326
1875.218 0.325
1882.942 0.324
1890.662 0.323
1898.336 0.322
1906.323 0.321
1914.453 0.32
1922.576 0.319
1930.819 0.318
1939.213 0.317
1947.621 0.316
1956.073 0.315
1964.608 0.314
1973.313 0.313
1982.119 0.312
1990.896 0.311
1999.746 0.31
2008.642 0.309
2017.566 0.308
2026.579 0.307
2035.699 0.306
2044.942 0.305
2054.283 0.304
2063.736 0.303
2073.340 0.302
2083.064 0.301
2092.869 0.3
2102.764 0.299
2112.769 0.298
2122.877 0.297
2133.086 0.296
2143.395 0.295
2153.790 0.294
2164.307 0.293
2174.949 0.292
2185.676 0.291
2196.458 0.29
2207.349 0.289
2218.326 0.288
2229.441 0.287
2240.652 0.286
2252.022 0.285
2263.547 0.284
2275.165 0.283
2286.875 0.282
2298.708 0.281
2310.681 0.28
2322.759 0.279
2335.021 0.278
2347.429 0.277
2359.970 0.276
2372.637 0.275
2385.421 0.274
2398.298 0.273
2411.322 0.272
2424.507 0.271
2437.854 0.27
2451.353 0.269
2464.992 0.268
2478.820 0.267
2492.781 0.266
2506.886 0.265
2521.168 0.264
2535.592 0.263
2550.200 0.262
2564.985 0.261
2579.920 0.26
2595.031 0.259
2610.332 0.258
2625.818 0.257
2641.492 0.256
2657.339 0.255
2673.349 0.254
2689.520 0.253
2705.899 0.252
2722.512 0.251
2739.295 0.25
2756.255 0.249
2773.394 0.248
2790.669 0.247
2808.087 0.246
2825.600 0.245
2843.210 0.244
2860.950 0.243
2878.826 0.242
2896.932 0.241
2915.327 0.24
2933.917 0.239
2952.692 0.238
2971.657 0.237
2990.804 0.236
3010.131 0.235
3029.663 0.234
3049.413 0.233
3069.372 0.232
3089.534 0.231
3109.913 0.23
3130.522 0.229
3151.360 0.228
3172.434 0.227
3193.739 0.226
3215.274 0.225
3237.022 0.224
3259.002 0.223
3281.218 0.222
3303.670 0.221
3326.363 0.22
3349.299 0.219
3372.479 0.218
3395.908 0.217
3419.587 0.216
3443.520 0.215
3467.708 0.214
3492.155 0.213
3516.862 0.212
3541.834 0.211
3567.072 0.21
3592.578 0.209
3618.357 0.208
3644.410 0.207
3670.740 0.206
3697.350 0.205
3724.243 0.204
3751.421 0.203
3778.887 0.202
3806.644 0.201
3834.695 0.2
3863.041 0.199
3891.687 0.198
3920.635 0.197
3949.887 0.196
3979.447 0.195
4009.317 0.194
4039.501 0.193
4070.000 0.192
4100.818 0.191
4131.958 0.19
4163.422 0.189
4195.213 0.188
4227.335 0.187
4259.790 0.186
4292.580 0.185
4325.710 0.184
4359.181 0.183
4392.997 0.182
4427.161 0.181
4461.675 0.18
4496.543 0.179
4531.767 0.178
4567.351 0.177
4603.297 0.176
4639.608 0.175
