# TIME w/ LS370, calibrated against X107797
# Data from 2016-11-27 to  2017-03-05
# Calibration produced 2018-11-01 14:16:09.918130
# R[Ohms] T[K]
26.452 297
26.438 295
26.537 293
26.590 291
26.681 289
26.773 287
26.862 285
26.959 283
27.054 281
27.154 279
27.250 277
27.349 275
27.449 273
27.554 271
27.654 269
27.758 267
27.865 265
27.972 263
28.082 261
28.183 259
28.297 257
28.413 255
28.525 253
28.641 251
28.758 249
28.872 247
28.997 245
29.115 243
29.239 241
29.363 239
29.491 237
29.622 235
29.750 233
29.884 231
30.019 229
30.148 227
30.288 225
30.429 223
30.576 221
30.712 219
30.861 217
31.007 215
31.157 213
31.306 211
31.467 209
31.619 207
31.777 205
31.942 203
32.108 201
32.276 199
32.442 197
32.614 195
32.792 193
32.962 191
33.147 189
33.327 187
33.512 185
33.702 183
33.889 181
34.092 179
34.288 177
34.503 175
34.693 173
34.897 171
35.112 169
35.339 167
35.554 165
35.774 163
36.003 161
36.242 159
36.470 157
36.703 155
36.949 153
37.199 151
37.451 149
37.706 147
37.976 145
38.245 143
38.508 141
38.791 139
39.077 137
39.368 135
39.665 133
39.971 131
40.279 129
40.592 127
40.917 125
41.244 123
41.579 121
41.927 119
42.271 117
42.553 115
43.023 113
43.411 111
43.781 109
44.165 107
44.614 105
45.029 103
45.423 101
45.862 99
46.326 97
46.786 95
47.261 93
47.764 91
48.279 89
48.808 87
49.332 85
49.900 83
50.469 81
51.093 79
51.711 77
52.341 75
53.002 73
53.706 71
54.430 69
55.169 67
55.930 65
56.768 63
57.643 61
58.517 59
59.478 57
60.433 55
61.471 53
62.572 51
63.221 49.9
63.369 49.7
63.444 49.5
63.579 49.3
63.683 49.1
63.817 48.9
63.907 48.7
64.029 48.5
64.163 48.3
64.165 48.1
64.294 47.9
64.384 47.7
64.534 47.5
64.661 47.3
64.764 47.1
64.915 46.9
65.007 46.7
65.152 46.5
65.285 46.3
65.396 46.1
65.562 45.9
65.651 45.7
65.787 45.5
65.949 45.3
66.073 45.1
66.192 44.9
66.325 44.7
66.471 44.5
66.623 44.3
66.713 44.1
66.864 43.9
67.030 43.7
67.112 43.5
67.272 43.3
67.415 43.1
67.597 42.9
67.693 42.7
67.849 42.5
67.957 42.3
68.152 42.1
68.304 41.9
68.459 41.7
68.556 41.5
68.733 41.3
68.882 41.1
68.999 40.9
69.154 40.7
69.342 40.5
69.468 40.3
69.589 40.1
69.813 39.9
69.996 39.7
70.118 39.5
70.279 39.3
70.488 39.1
70.629 38.9
70.773 38.7
70.955 38.5
71.094 38.3
71.252 38.1
71.460 37.9
71.569 37.7
71.739 37.5
71.994 37.3
72.115 37.1
72.257 36.9
72.525 36.7
72.647 36.5
72.800 36.3
73.017 36.1
73.147 35.9
73.322 35.7
73.550 35.5
73.688 35.3
73.873 35.1
74.116 34.9
74.263 34.7
74.441 34.5
74.715 34.3
74.864 34.1
74.986 33.9
75.199 33.7
75.444 33.5
75.630 33.3
75.881 33.1
76.082 32.9
76.244 32.7
76.375 32.5
76.702 32.3
76.846 32.1
77.028 31.9
77.181 31.7
77.528 31.5
77.752 31.3
77.912 31.1
78.088 30.9
78.322 30.7
78.484 30.5
78.817 30.3
79.120 30.1
79.341 29.9
79.548 29.7
79.791 29.5
79.969 29.3
80.258 29.1
80.486 28.9
80.720 28.7
80.963 28.5
81.171 28.3
81.486 28.1
81.704 27.9
82.113 27.5
82.293 27.3
82.671 27.1
82.907 26.9
83.216 26.7
83.513 26.5
83.780 26.3
84.180 25.9
84.590 25.7
84.899 25.5
85.184 25.3
85.609 24.9
86.034 24.7
86.471 24.3
86.901 24.1
87.311 23.9
87.424 23.7
87.864 23.5
88.249 23.3
88.431 23.1
88.760 22.9
88.933 22.7
89.379 22.5
89.819 22.3
90.028 22.1
90.498 21.9
91.096 21.5
91.582 21.3
91.776 21.1
92.309 20.9
92.395 20.7
93.022 20.5
93.696 20.1
94.401 19.7
94.974 19.5
95.339 19.3
95.628 19.1
96.278 18.9
97.043 18.5
97.604 18.3
98.185 17.9
98.923 17.7
99.189 17.5
99.560 17.3
100.320 17.1
100.876 16.9
101.496 16.7
101.726 16.5
102.144 16.3
102.754 16.1
103.184 15.9
103.988 15.7
104.602 15.5
105.301 15.1
106.083 14.9
106.613 14.7
107.248 14.5
107.942 14.3
108.425 14.1
109.276 13.9
110.036 13.7
110.752 13.5
111.364 13.3
112.029 13.1
112.649 12.9
113.254 12.7
114.195 12.5
114.781 12.3
115.712 12.1
116.626 11.9
117.451 11.7
118.230 11.5
119.206 11.3
120.267 11.1
120.954 10.9
122.073 10.7
123.439 10.5
124.093 10.3
124.967 10.1
125.880 9.9
127.213 9.7
128.838 9.5
129.937 9.3
131.062 9.1
132.244 8.9
133.514 8.7
135.082 8.5
136.208 8.3
137.623 8.1
139.495 7.9
140.722 7.7
142.371 7.5
144.161 7.3
145.914 7.1
148.116 6.9
149.782 6.7
152.190 6.5
154.009 6.3
156.228 6.1
160.036 5.9
162.669 5.7
165.796 5.5
168.283 5.3
172.168 5.1
175.547 4.9
179.898 4.7
183.682 4.5
188.300 4.3
194.044 4.1
196.771 3.95
198.349 3.89
199.857 3.83
201.135 3.79
202.841 3.73
203.390 3.71
203.841 3.69
204.575 3.67
205.196 3.65
205.857 3.63
206.500 3.61
207.137 3.59
207.776 3.57
208.437 3.55
209.120 3.53
209.790 3.51
210.478 3.49
211.160 3.47
211.893 3.45
212.582 3.43
213.266 3.41
214.022 3.39
214.737 3.37
215.459 3.35
216.173 3.33
216.961 3.31
217.805 3.29
218.502 3.27
219.205 3.25
219.994 3.23
220.833 3.21
221.600 3.19
222.500 3.17
223.395 3.15
224.158 3.13
225.003 3.11
225.864 3.09
226.663 3.07
227.637 3.05
228.528 3.03
229.514 3.01
230.406 2.99
231.174 2.97
232.144 2.95
233.265 2.93
234.269 2.91
235.266 2.89
236.107 2.87
236.986 2.85
238.055 2.83
239.089 2.81
240.284 2.79
241.430 2.77
242.404 2.75
243.548 2.73
244.467 2.71
245.712 2.69
246.776 2.67
247.990 2.65
249.379 2.63
250.403 2.61
251.729 2.59
252.939 2.57
254.008 2.55
255.464 2.53
256.605 2.51
257.989 2.49
259.334 2.47
260.422 2.45
261.797 2.43
263.068 2.41
264.669 2.39
266.116 2.37
267.774 2.35
268.997 2.33
270.746 2.31
271.994 2.29
273.490 2.27
275.061 2.25
276.794 2.23
279.011 2.21
280.929 2.19
282.428 2.17
284.250 2.15
286.035 2.13
287.944 2.11
290.077 2.09
291.680 2.07
293.478 2.05
295.567 2.03
297.171 2.01
299.066 1.99
301.254 1.97
303.407 1.95
306.013 1.93
308.645 1.91
310.597 1.89
312.531 1.87
314.716 1.85
317.740 1.83
319.755 1.81
322.038 1.79
325.580 1.77
327.502 1.75
331.123 1.73
334.332 1.71
336.956 1.69
339.500 1.67
342.371 1.65
345.056 1.63
349.020 1.61
352.011 1.59
356.137 1.57
359.122 1.55
363.010 1.53
366.309 1.51
370.624 1.49
374.749 1.47
377.408 1.45
383.569 1.43
386.374 1.41
391.080 1.39
397.210 1.37
400.851 1.35
403.456 1.33
408.857 1.31
415.462 1.29
421.656 1.27
426.701 1.25
432.073 1.23
437.749 1.21
443.844 1.19
450.628 1.17
457.540 1.15
464.547 1.13
472.184 1.11
479.744 1.09
488.014 1.07
495.993 1.05
504.890 1.03
513.677 1.01
518.708 0.99975
519.081 0.999
519.640 0.998
520.142 0.997
520.633 0.996
521.198 0.995
521.552 0.994
522.032 0.993
522.519 0.992
522.883 0.991
523.636 0.99
523.771 0.989
524.560 0.988
524.802 0.987
525.410 0.986
526.024 0.985
526.416 0.984
527.043 0.983
527.528 0.982
528.000 0.981
528.435 0.98
529.090 0.979
529.500 0.978
529.960 0.977
530.536 0.976
531.130 0.975
531.544 0.974
532.058 0.973
532.670 0.972
532.969 0.971
533.633 0.97
534.167 0.969
534.521 0.968
535.004 0.967
535.523 0.966
536.140 0.965
536.737 0.964
537.449 0.963
538.030 0.962
538.206 0.961
538.852 0.96
539.333 0.959
539.790 0.958
540.159 0.957
541.062 0.956
541.614 0.955
542.079 0.954
542.500 0.953
543.202 0.952
543.673 0.951
544.111 0.95
544.463 0.949
545.269 0.948
545.660 0.947
546.060 0.946
546.760 0.945
547.520 0.944
548.055 0.943
548.420 0.942
549.117 0.941
549.524 0.94
550.115 0.939
550.561 0.938
551.470 0.937
551.620 0.936
552.419 0.935
552.758 0.934
553.491 0.933
554.260 0.932
554.757 0.931
555.320 0.93
555.677 0.929
556.339 0.928
556.965 0.927
557.559 0.926
557.990 0.925
558.469 0.924
559.329 0.923
559.745 0.922
560.316 0.921
560.847 0.92
561.456 0.919
561.955 0.918
562.537 0.917
563.339 0.916
563.882 0.915
564.255 0.914
565.073 0.913
565.708 0.912
566.091 0.911
566.973 0.91
567.710 0.909
568.048 0.908
568.341 0.907
569.056 0.906
569.692 0.905
570.425 0.904
570.898 0.903
571.607 0.902
572.256 0.901
572.859 0.9
573.426 0.899
573.944 0.898
574.668 0.897
575.387 0.896
575.993 0.895
576.645 0.894
577.354 0.893
577.935 0.892
578.377 0.891
579.224 0.89
579.990 0.889
580.080 0.888
580.940 0.887
581.411 0.886
582.235 0.885
582.959 0.884
583.563 0.883
584.083 0.882
584.817 0.881
585.494 0.88
586.284 0.879
586.685 0.878
587.390 0.877
588.078 0.876
588.605 0.875
589.492 0.874
589.938 0.873
590.533 0.872
591.459 0.871
592.151 0.87
592.565 0.869
593.477 0.868
594.135 0.867
594.373 0.866
595.200 0.865
595.967 0.864
596.942 0.863
597.479 0.862
598.000 0.861
598.978 0.86
599.298 0.859
600.240 0.858
600.764 0.857
601.535 0.856
602.140 0.855
602.740 0.854
603.430 0.853
604.270 0.852
604.840 0.851
605.822 0.85
606.438 0.849
607.380 0.848
607.481 0.847
608.370 0.846
609.062 0.845
609.940 0.844
610.880 0.843
611.129 0.842
611.982 0.841
612.663 0.84
613.624 0.839
614.350 0.838
615.025 0.837
615.613 0.836
616.531 0.835
617.387 0.834
617.863 0.833
618.799 0.832
619.454 0.831
620.239 0.83
620.798 0.829
621.560 0.828
622.403 0.827
623.250 0.826
624.068 0.825
624.374 0.824
625.570 0.823
626.090 0.822
626.743 0.821
627.801 0.82
628.609 0.819
629.249 0.818
629.650 0.817
630.786 0.816
632.358 0.815
632.313 0.814
632.913 0.813
634.166 0.812
634.797 0.811
635.440 0.81
636.382 0.809
636.934 0.808
637.934 0.807
638.860 0.806
639.460 0.805
640.385 0.804
641.063 0.803
641.677 0.802
642.760 0.801
643.520 0.8
644.640 0.799
645.295 0.798
646.030 0.797
647.080 0.796
647.720 0.795
648.670 0.794
649.770 0.793
650.340 0.792
651.280 0.791
651.500 0.79
652.460 0.789
653.770 0.788
654.330 0.787
655.350 0.786
656.130 0.785
657.110 0.784
657.630 0.783
658.790 0.782
659.670 0.781
660.540 0.78
661.090 0.779
662.550 0.778
662.705 0.777
664.065 0.776
664.750 0.775
665.810 0.774
666.280 0.773
667.690 0.772
668.105 0.771
668.930 0.77
669.980 0.769
671.060 0.768
671.655 0.767
672.985 0.766
674.030 0.765
674.635 0.764
675.475 0.763
676.840 0.762
677.340 0.761
678.370 0.76
679.600 0.759
680.070 0.758
681.040 0.757
682.075 0.756
682.790 0.755
683.710 0.754
685.060 0.753
685.760 0.752
686.840 0.751
688.115 0.75
688.510 0.749
689.280 0.748
690.605 0.747
691.645 0.746
692.370 0.745
693.670 0.744
694.550 0.743
695.390 0.742
696.310 0.741
697.395 0.74
698.150 0.739
699.670 0.738
700.210 0.737
701.560 0.736
701.950 0.735
703.425 0.734
704.075 0.733
705.370 0.732
706.375 0.731
706.905 0.73
708.505 0.729
709.390 0.728
710.120 0.727
711.620 0.726
712.270 0.725
713.300 0.724
714.790 0.723
715.515 0.722
716.830 0.721
717.910 0.72
718.720 0.719
719.620 0.718
720.965 0.717
722.210 0.716
722.810 0.715
724.345 0.714
725.710 0.713
725.950 0.712
727.390 0.711
728.795 0.71
729.450 0.709
730.410 0.708
731.915 0.707
732.850 0.706
734.195 0.705
734.970 0.704
736.320 0.703
737.675 0.702
738.280 0.701
739.420 0.7
740.880 0.699
741.810 0.698
743.000 0.697
744.480 0.696
744.990 0.695
746.790 0.694
747.870 0.693
748.950 0.692
749.925 0.691
750.770 0.69
752.330 0.689
753.540 0.688
754.140 0.687
755.490 0.686
757.180 0.685
758.320 0.684
758.790 0.683
760.405 0.682
761.930 0.681
762.890 0.68
763.860 0.679
764.980 0.678
766.300 0.677
767.740 0.676
768.600 0.675
770.170 0.674
771.530 0.673
772.485 0.672
773.795 0.671
775.575 0.67
776.985 0.669
777.670 0.668
778.740 0.667
780.360 0.666
781.715 0.665
782.745 0.664
783.895 0.663
785.240 0.662
786.770 0.661
787.840 0.66
789.250 0.659
790.305 0.658
791.455 0.657
793.080 0.656
794.600 0.655
795.980 0.654
796.760 0.653
797.905 0.652
800.050 0.651
800.805 0.65
802.490 0.649
803.860 0.648
804.940 0.647
806.875 0.646
807.520 0.645
809.050 0.644
810.550 0.643
812.010 0.642
813.330 0.641
814.890 0.64
816.480 0.639
817.795 0.638
819.365 0.637
820.490 0.636
822.190 0.635
823.520 0.634
824.540 0.633
826.310 0.632
827.820 0.631
829.600 0.63
830.605 0.629
832.585 0.628
833.350 0.627
835.300 0.626
836.980 0.625
838.405 0.624
839.410 0.623
841.025 0.622
842.150 0.621
843.780 0.62
845.575 0.619
846.870 0.618
848.815 0.617
850.310 0.616
851.905 0.615
853.380 0.614
855.195 0.613
856.390 0.612
857.850 0.611
859.670 0.61
861.020 0.609
862.930 0.608
864.480 0.607
865.960 0.606
867.245 0.605
869.355 0.604
871.330 0.603
872.580 0.602
874.080 0.601
875.910 0.6
877.875 0.599
879.600 0.598
882.020 0.597
883.190 0.596
884.500 0.595
886.215 0.594
887.600 0.593
889.645 0.592
891.080 0.591
893.740 0.59
894.570 0.589
896.270 0.588
897.920 0.587
900.375 0.586
901.910 0.585
904.560 0.584
905.230 0.583
907.660 0.582
908.790 0.581
910.830 0.58
912.430 0.579
914.975 0.578
916.175 0.577
918.250 0.576
920.590 0.575
921.290 0.574
924.080 0.573
926.525 0.572
927.740 0.571
929.880 0.57
931.215 0.569
933.490 0.568
935.680 0.567
937.570 0.566
939.740 0.565
942.060 0.564
944.200 0.563
945.430 0.562
947.370 0.561
948.220 0.56
950.700 0.559
953.370 0.558
954.610 0.557
957.090 0.556
958.980 0.555
962.790 0.554
963.590 0.553
965.940 0.552
968.670 0.551
969.665 0.55
971.770 0.549
974.125 0.548
976.160 0.547
978.720 0.546
980.245 0.545
982.900 0.544
985.320 0.543
987.010 0.542
988.860 0.541
991.630 0.54
994.460 0.539
995.120 0.538
998.030 0.537
1000.520 0.536
1002.610 0.535
1004.240 0.534
1007.215 0.533
1009.280 0.532
1011.950 0.531
1014.160 0.53
1016.890 0.529
1018.210 0.528
1020.800 0.527
1022.840 0.526
1025.215 0.525
1028.440 0.524
1029.710 0.523
1032.680 0.522
1034.330 0.521
1037.600 0.52
1039.770 0.519
1042.400 0.518
1045.030 0.517
1047.750 0.516
1049.890 0.515
1051.730 0.514
1054.410 0.513
1056.765 0.512
1059.760 0.511
1062.775 0.51
1065.290 0.509
1068.070 0.508
1069.630 0.507
1072.470 0.506
1075.400 0.505
1077.875 0.504
1080.460 0.503
1082.855 0.502
1085.265 0.501
1088.530 0.5
1091.620 0.499
1093.950 0.498
1096.740 0.497
1100.590 0.496
1101.770 0.495
1105.055 0.494
1107.890 0.493
1111.430 0.492
1113.990 0.491
1116.440 0.49
1119.760 0.489
1122.790 0.488
1125.930 0.487
1128.400 0.486
1131.130 0.485
1133.630 0.484
1137.945 0.483
1140.505 0.482
1143.255 0.481
1146.260 0.48
1149.780 0.479
1152.765 0.478
1156.010 0.477
1158.760 0.476
1162.075 0.475
1165.115 0.474
1167.755 0.473
1171.700 0.472
1174.555 0.471
1178.070 0.47
1180.955 0.469
1184.095 0.468
1188.230 0.467
1190.120 0.466
1194.030 0.465
1197.390 0.464
1200.980 0.463
1204.140 0.462
1207.900 0.461
1210.450 0.46
1214.640 0.459
1218.250 0.458
1221.595 0.457
1224.850 0.456
1227.930 0.455
1231.170 0.454
1235.180 0.453
1238.570 0.452
1242.050 0.451
1245.770 0.45
1249.475 0.449
1253.030 0.448
1256.590 0.447
1260.580 0.446
1263.750 0.445
1268.260 0.444
1271.450 0.443
1276.120 0.442
1279.540 0.441
1283.030 0.44
1287.030 0.439
1291.050 0.438
1294.930 0.437
1299.300 0.436
1303.180 0.435
1306.760 0.434
1311.020 0.433
1315.200 0.432
1319.095 0.431
1323.820 0.43
1327.990 0.429
1332.290 0.428
1334.965 0.427
1340.260 0.426
1344.245 0.425
1348.685 0.424
1353.400 0.423
1357.480 0.422
1362.090 0.421
1366.355 0.42
1371.040 0.419
1374.975 0.418
1379.640 0.417
1384.450 0.416
1388.560 0.415
1393.600 0.414
1397.830 0.413
1402.515 0.412
1408.280 0.411
1412.000 0.41
1415.520 0.409
1421.680 0.408
1569.050 0.407
1430.470 0.406
1439.925 0.404
1441.045 0.403
1450.680 0.402
1458.600 0.401
1457.965 0.4
1466.730 0.399
1472.290 0.398
1473.355 0.397
1479.960 0.396
1487.130 0.395
1490.500 0.393
1503.960 0.392
1513.130 0.39
1519.670 0.389
1517.270 0.388
1532.560 0.387
1526.650 0.386
1540.930 0.385
1543.315 0.384
1553.320 0.383
1559.390 0.382
1567.365 0.381
1572.390 0.38
1577.890 0.379
1578.920 0.378
1591.910 0.377
1639.165 0.376
1603.410 0.375
1605.650 0.374
1655.545 0.373
1617.790 0.372
1627.210 0.371
1675.455 0.37
1638.680 0.369
1725.040 0.368
1691.350 0.367
1661.020 0.366
1738.320 0.365
1744.040 0.364
1664.675 0.363
1685.200 0.362
1693.220 0.361
1690.365 0.36
1704.370 0.359
1718.220 0.358
1708.650 0.357
1726.140 0.356
1734.560 0.355
1741.910 0.354
1749.530 0.353
1757.470 0.352
1757.925 0.351
1753.800 0.35
1781.370 0.349
1779.380 0.348
1823.775 0.347
1830.605 0.346
1810.585 0.345
1821.875 0.344
1831.050 0.343
1838.310 0.342
1845.240 0.341
1857.420 0.34
1859.040 0.339
1872.610 0.338
1859.240 0.337
1885.890 0.336
1895.860 0.335
1905.440 0.334
1911.760 0.333
1924.540 0.332
1932.610 0.331
1936.960 0.33
1948.070 0.329
1962.020 0.328
1970.295 0.327
1978.145 0.326
1987.610 0.325
1998.240 0.324
2009.190 0.323
2017.420 0.322
2026.900 0.321
2037.410 0.32
2046.690 0.319
2058.490 0.318
2068.940 0.317
2079.335 0.316
2089.440 0.315
2100.870 0.314
2110.560 0.313
2123.280 0.312
2134.260 0.311
2145.400 0.31
2188.570 0.309
2168.745 0.308
2177.430 0.307
2189.155 0.306
2202.715 0.305
2215.820 0.304
2225.340 0.303
2239.550 0.302
2249.885 0.301
2260.980 0.3
2275.630 0.299
2285.940 0.298
2299.960 0.297
2312.450 0.296
2326.940 0.295
2338.490 0.294
2352.710 0.293
2366.080 0.292
2379.730 0.291
2394.625 0.29
2404.740 0.289
2419.310 0.288
2436.655 0.287
2466.000 0.286
2472.300 0.285
2482.350 0.284
2497.285 0.283
2508.790 0.282
2527.720 0.281
2535.790 0.28
2549.600 0.279
2569.410 0.278
2580.840 0.277
2597.375 0.276
2613.545 0.275
2631.530 0.274
2652.465 0.273
2666.800 0.272
2683.265 0.271
2698.880 0.27
2714.185 0.269
2732.600 0.268
2753.140 0.267
2775.570 0.266
2787.105 0.265
2811.070 0.264
2826.650 0.263
2844.750 0.262
2866.295 0.261
2886.260 0.26
2904.930 0.259
2925.005 0.258
2945.265 0.257
2966.535 0.256
2985.785 0.255
3005.735 0.254
3029.430 0.253
3046.680 0.252
3073.140 0.251
3094.465 0.25
3112.360 0.249
3139.440 0.248
3164.720 0.247
3184.515 0.246
3205.770 0.245
3234.835 0.244
3255.955 0.243
3282.115 0.242
3304.890 0.241
3330.290 0.24
3352.550 0.239
3379.070 0.238
3398.270 0.237
3440.460 0.236
3451.640 0.235
3480.515 0.234
3516.560 0.233
3544.770 0.232
3565.410 0.231
3585.870 0.23
3609.910 0.229
3634.500 0.228
3663.560 0.227
3693.320 0.226
3727.140 0.225
3762.705 0.224
3795.850 0.223
3833.370 0.222
3872.160 0.221
3896.410 0.22
3935.830 0.219
3970.360 0.218
3997.190 0.217
4037.410 0.216
