# TIME w/ LS370, calibrated against X107797
# Calibration data taken from 20160302 to 20181030
# Constrained by data from 0.234K to 207.5K, extrapolated elsewhere
# Calibration generated 2019-07-23 17:41:39.838107, verified monotonic
# Chopped to <140K because the sensor is non-monotonic above this
# R[Ohms] T[K]
1.357 140
1.384 135
1.415 130
1.449 125
1.489 120
1.534 115
1.586 110
1.645 105
1.711 100
1.789 95
1.878 90
1.979 85
2.098 80
2.236 75
2.393 70
2.429 69
2.466 68
2.503 67
2.541 66
2.581 65
2.623 64
2.665 63
2.709 62
2.755 61
2.802 60
2.850 59
2.901 58
2.954 57
3.008 56
3.064 55
3.120 54
3.179 53
3.241 52
3.303 51
3.371 50
3.440 49
3.509 48
3.582 47
3.657 46
3.731 45
3.810 44
3.895 43
3.982 42
4.073 41
4.161 40
4.252 39
4.348 38
4.446 37
4.549 36
4.653 35
4.762 34
4.873 33
4.984 32
5.100 31
5.225 30
5.283 29.5
5.341 29
5.402 28.5
5.466 28
5.533 27.5
5.602 27
5.672 26.5
5.741 26
5.810 25.5
5.881 25
5.955 24.5
6.033 24
6.111 23.5
6.170 23
6.248 22.5
6.335 22
6.427 21.5
6.520 21
6.612 20.5
6.705 20
6.794 19.5
6.890 19
6.999 18.5
7.112 18
7.232 17.5
7.359 17
7.473 16.5
7.623 16
7.773 15.5
7.929 15
8.090 14.5
8.258 14
8.448 13.5
8.652 13
8.884 12.5
9.132 12
9.407 11.5
9.684 11
9.984 10.5
10.354 10
10.705 9.5
11.153 9
11.686 8.5
12.188 8
12.281 7.9
12.392 7.8
12.510 7.7
12.628 7.6
12.753 7.5
12.880 7.4
13.009 7.3
13.141 7.2
13.273 7.1
13.408 7
13.544 6.9
13.687 6.8
13.840 6.7
13.972 6.6
14.137 6.5
14.296 6.4
14.452 6.3
14.607 6.2
14.773 6.1
14.945 6
15.119 5.9
15.297 5.8
15.483 5.7
15.654 5.6
15.853 5.5
16.061 5.4
16.258 5.3
16.463 5.2
16.688 5.1
16.888 5
17.098 4.9
17.366 4.8
17.607 4.7
17.741 4.6
17.953 4.5
18.218 4.4
18.523 4.3
18.778 4.2
19.066 4.1
19.404 4
19.729 3.9
20.059 3.8
20.369 3.7
20.689 3.6
21.023 3.5
21.422 3.4
21.815 3.3
22.182 3.2
22.625 3.1
23.116 3
23.675 2.9
24.213 2.8
24.738 2.7
25.320 2.6
25.989 2.5
26.641 2.4
27.331 2.3
28.231 2.2
29.264 2.1
30.118 2
30.190 1.99
30.289 1.98
30.397 1.97
30.503 1.96
30.602 1.95
30.708 1.94
30.816 1.93
30.929 1.92
31.047 1.91
31.165 1.9
31.279 1.89
31.386 1.88
31.495 1.87
31.613 1.86
31.738 1.85
31.864 1.84
31.987 1.83
32.108 1.82
32.228 1.81
32.352 1.8
32.481 1.79
32.610 1.78
32.743 1.77
32.878 1.76
33.012 1.75
33.144 1.74
33.277 1.73
33.414 1.72
33.553 1.71
33.697 1.7
33.840 1.69
33.985 1.68
34.132 1.67
34.285 1.66
34.439 1.65
34.592 1.64
34.744 1.63
34.897 1.62
35.055 1.61
35.214 1.6
35.377 1.59
35.538 1.58
35.701 1.57
35.877 1.56
36.072 1.55
36.247 1.54
36.361 1.53
36.432 1.52
36.505 1.51
36.632 1.5
36.836 1.49
37.098 1.48
37.361 1.47
37.603 1.46
37.847 1.45
38.092 1.44
38.338 1.43
38.585 1.42
38.831 1.41
39.076 1.4
39.318 1.39
39.556 1.38
39.793 1.37
40.029 1.36
40.266 1.35
40.503 1.34
40.739 1.33
40.975 1.32
41.212 1.31
41.453 1.3
41.692 1.29
41.911 1.28
42.130 1.27
42.366 1.26
42.629 1.25
42.916 1.24
43.221 1.23
43.528 1.22
43.825 1.21
44.126 1.2
44.439 1.19
44.756 1.18
45.078 1.17
45.413 1.16
45.763 1.15
46.110 1.14
46.449 1.13
46.800 1.12
47.165 1.11
47.539 1.1
47.932 1.09
48.329 1.08
48.715 1.07
49.106 1.06
49.511 1.05
49.924 1.04
50.347 1.03
50.793 1.02
51.242 1.01
51.710 1
52.221 0.99
52.730 0.98
53.276 0.97
53.854 0.96
54.261 0.95
54.614 0.94
55.046 0.93
55.618 0.92
56.315 0.91
57.094 0.9
57.838 0.89
58.426 0.88
59.047 0.87
59.718 0.86
60.390 0.85
61.092 0.84
61.818 0.83
62.562 0.82
63.337 0.81
64.148 0.8
64.229 0.799
64.311 0.798
64.393 0.797
64.476 0.796
64.559 0.795
64.642 0.794
64.725 0.793
64.808 0.792
64.890 0.791
64.974 0.79
65.058 0.789
65.143 0.788
65.227 0.787
65.313 0.786
65.398 0.785
65.483 0.784
65.569 0.783
65.655 0.782
65.741 0.781
65.827 0.78
65.913 0.779
66.001 0.778
66.087 0.777
66.174 0.776
66.262 0.775
66.350 0.774
66.439 0.773
66.528 0.772
66.617 0.771
66.706 0.77
66.789 0.769
66.873 0.768
66.960 0.767
67.047 0.766
67.144 0.765
67.240 0.764
67.336 0.763
67.431 0.762
67.525 0.761
67.618 0.76
67.711 0.759
67.805 0.758
67.898 0.757
67.992 0.756
68.086 0.755
68.180 0.754
68.273 0.753
68.365 0.752
68.457 0.751
68.550 0.75
68.644 0.749
68.738 0.748
68.833 0.747
68.927 0.746
69.021 0.745
69.115 0.744
69.210 0.743
69.305 0.742
69.401 0.741
69.497 0.74
69.592 0.739
69.688 0.738
69.786 0.737
69.884 0.736
69.982 0.735
70.080 0.734
70.179 0.733
70.278 0.732
70.378 0.731
70.480 0.73
70.580 0.729
70.681 0.728
70.782 0.727
70.883 0.726
70.985 0.725
71.088 0.724
71.191 0.723
71.295 0.722
71.399 0.721
71.502 0.72
71.608 0.719
71.759 0.718
71.886 0.717
71.972 0.716
72.062 0.715
72.155 0.714
72.251 0.713
72.350 0.712
72.451 0.711
72.555 0.71
72.661 0.709
72.768 0.708
72.877 0.707
72.988 0.706
73.101 0.705
73.216 0.704
73.333 0.703
73.451 0.702
73.570 0.701
73.690 0.7
73.812 0.699
73.936 0.698
74.060 0.697
74.185 0.696
74.311 0.695
74.437 0.694
74.564 0.693
74.691 0.692
74.820 0.691
74.950 0.69
75.079 0.689
75.209 0.688
75.338 0.687
75.468 0.686
75.598 0.685
75.727 0.684
75.857 0.683
75.986 0.682
76.115 0.681
76.243 0.68
76.372 0.679
76.499 0.678
76.626 0.677
76.752 0.676
76.879 0.675
77.005 0.674
77.130 0.673
77.254 0.672
77.377 0.671
77.499 0.67
77.620 0.669
77.749 0.668
77.880 0.667
78.012 0.666
78.148 0.665
78.275 0.664
78.402 0.663
78.529 0.662
78.656 0.661
78.783 0.66
78.910 0.659
79.038 0.658
79.166 0.657
79.294 0.656
79.417 0.655
79.542 0.654
79.671 0.653
79.800 0.652
79.930 0.651
80.060 0.65
80.191 0.649
80.323 0.648
80.453 0.647
80.584 0.646
80.716 0.645
80.848 0.644
80.982 0.643
81.115 0.642
81.249 0.641
81.384 0.64
81.519 0.639
81.656 0.638
81.795 0.637
81.933 0.636
82.072 0.635
82.214 0.634
82.357 0.633
82.501 0.632
82.646 0.631
82.793 0.63
82.942 0.629
83.092 0.628
83.244 0.627
83.398 0.626
83.556 0.625
83.716 0.624
83.879 0.623
84.044 0.622
84.211 0.621
84.381 0.62
84.555 0.619
84.729 0.618
84.847 0.617
84.972 0.616
85.130 0.615
85.289 0.614
85.447 0.613
85.606 0.612
85.765 0.611
85.922 0.61
86.083 0.609
86.248 0.608
86.412 0.607
86.575 0.606
86.748 0.605
86.928 0.604
87.077 0.603
87.232 0.602
87.402 0.601
87.573 0.6
87.744 0.599
87.915 0.598
88.085 0.597
88.254 0.596
88.422 0.595
88.595 0.594
88.772 0.593
88.950 0.592
89.128 0.591
89.295 0.59
89.460 0.589
89.628 0.588
89.810 0.587
90.002 0.586
90.192 0.585
90.380 0.584
90.567 0.583
90.755 0.582
90.941 0.581
91.126 0.58
91.313 0.579
91.500 0.578
91.686 0.577
91.872 0.576
92.060 0.575
92.247 0.574
92.434 0.573
92.618 0.572
92.804 0.571
92.995 0.57
93.185 0.569
93.375 0.568
93.566 0.567
93.757 0.566
93.945 0.565
94.135 0.564
94.327 0.563
94.591 0.562
94.799 0.561
94.963 0.56
95.131 0.559
95.306 0.558
95.488 0.557
95.673 0.556
95.862 0.555
96.060 0.554
96.246 0.553
96.435 0.552
96.640 0.551
96.850 0.55
97.071 0.549
97.334 0.548
97.635 0.547
97.824 0.546
98.018 0.545
98.205 0.544
98.407 0.543
98.620 0.542
98.834 0.541
99.057 0.54
99.289 0.539
99.526 0.538
99.766 0.537
100.006 0.536
100.248 0.535
100.496 0.534
100.746 0.533
100.998 0.532
101.252 0.531
101.508 0.53
101.748 0.529
101.982 0.528
102.241 0.527
102.514 0.526
102.788 0.525
103.060 0.524
103.331 0.523
103.599 0.522
103.865 0.521
104.132 0.52
104.399 0.519
104.665 0.518
104.930 0.517
105.199 0.516
105.466 0.515
105.734 0.514
105.990 0.513
106.254 0.512
106.523 0.511
106.809 0.51
107.102 0.509
107.374 0.508
107.633 0.507
107.877 0.506
108.116 0.505
108.378 0.504
108.663 0.503
108.932 0.502
109.169 0.501
109.439 0.5
109.710 0.499
109.963 0.498
110.201 0.497
110.451 0.496
110.713 0.495
110.985 0.494
111.260 0.493
111.524 0.492
111.823 0.491
112.112 0.49
112.379 0.489
112.652 0.488
112.942 0.487
113.230 0.486
113.483 0.485
113.746 0.484
114.019 0.483
114.298 0.482
114.580 0.481
114.890 0.48
115.196 0.479
115.494 0.478
115.796 0.477
116.113 0.476
116.443 0.475
116.747 0.474
117.061 0.473
117.382 0.472
117.734 0.471
118.099 0.47
118.428 0.469
118.760 0.468
119.098 0.467
119.447 0.466
119.815 0.465
120.192 0.464
120.579 0.463
120.971 0.462
121.278 0.461
121.616 0.46
121.994 0.459
122.379 0.458
122.764 0.457
123.144 0.456
123.560 0.455
123.967 0.454
124.354 0.453
124.763 0.452
125.183 0.451
125.605 0.45
126.031 0.449
126.457 0.448
126.833 0.447
127.126 0.446
127.522 0.445
127.920 0.444
128.353 0.443
128.775 0.442
129.171 0.441
129.574 0.44
129.979 0.439
130.381 0.438
130.783 0.437
131.187 0.436
131.583 0.435
131.999 0.434
132.413 0.433
132.810 0.432
133.208 0.431
133.606 0.43
134.012 0.429
134.438 0.428
134.879 0.427
135.305 0.426
135.730 0.425
136.155 0.424
136.576 0.423
136.995 0.422
137.419 0.421
137.850 0.42
138.285 0.419
138.719 0.418
139.161 0.417
139.607 0.416
140.058 0.415
140.508 0.414
140.963 0.413
141.440 0.412
141.917 0.411
142.396 0.41
142.862 0.409
143.317 0.408
143.785 0.407
144.267 0.406
144.771 0.405
145.300 0.404
145.805 0.403
146.267 0.402
146.767 0.401
147.313 0.4
147.824 0.399
148.335 0.398
148.865 0.397
149.421 0.396
149.982 0.395
150.545 0.394
151.111 0.393
151.678 0.392
152.261 0.391
152.806 0.39
153.345 0.389
153.913 0.388
154.489 0.387
155.056 0.386
155.621 0.385
156.218 0.384
156.822 0.383
157.429 0.382
158.043 0.381
158.665 0.38
159.269 0.379
159.881 0.378
160.504 0.377
161.136 0.376
161.760 0.375
162.374 0.374
163.021 0.373
163.670 0.372
164.323 0.371
164.954 0.37
165.567 0.369
166.218 0.368
166.880 0.367
167.553 0.366
168.233 0.365
168.911 0.364
169.596 0.363
170.289 0.362
170.986 0.361
171.691 0.36
172.403 0.359
173.121 0.358
173.846 0.357
174.583 0.356
175.340 0.355
176.064 0.354
176.794 0.353
177.551 0.352
178.317 0.351
179.087 0.35
179.863 0.349
180.649 0.348
181.441 0.347
182.243 0.346
183.068 0.345
183.891 0.344
184.723 0.343
185.539 0.342
186.359 0.341
187.206 0.34
188.063 0.339
188.927 0.338
189.799 0.337
190.679 0.336
191.564 0.335
192.469 0.334
193.367 0.333
194.268 0.332
195.192 0.331
196.125 0.33
197.066 0.329
198.008 0.328
198.958 0.327
199.920 0.326
200.895 0.325
201.869 0.324
202.849 0.323
203.843 0.322
204.852 0.321
205.871 0.32
206.897 0.319
207.931 0.318
208.977 0.317
210.030 0.316
211.097 0.315
212.172 0.314
213.260 0.313
214.360 0.312
215.468 0.311
216.587 0.31
217.718 0.309
218.859 0.308
220.012 0.307
221.176 0.306
222.350 0.305
223.537 0.304
224.741 0.303
225.956 0.302
227.179 0.301
228.416 0.3
229.666 0.299
230.928 0.298
232.200 0.297
233.484 0.296
234.781 0.295
236.099 0.294
237.436 0.293
238.787 0.292
240.153 0.291
241.535 0.29
242.929 0.289
244.340 0.288
245.765 0.287
247.207 0.286
248.668 0.285
250.148 0.284
251.624 0.283
253.117 0.282
254.629 0.281
256.160 0.28
257.709 0.279
259.277 0.278
260.864 0.277
262.471 0.276
264.098 0.275
265.743 0.274
267.406 0.273
269.086 0.272
270.786 0.271
272.506 0.27
274.249 0.269
276.013 0.268
277.797 0.267
279.601 0.266
281.428 0.265
283.278 0.264
285.151 0.263
287.045 0.262
288.961 0.261
290.901 0.26
292.863 0.259
294.848 0.258
296.858 0.257
298.892 0.256
300.947 0.255
303.023 0.254
305.125 0.253
307.252 0.252
309.401 0.251
311.573 0.25
313.773 0.249
315.999 0.248
318.249 0.247
320.527 0.246
322.831 0.245
325.160 0.244
327.514 0.243
329.896 0.242
332.305 0.241
334.740 0.24
337.202 0.239
339.691 0.238
342.208 0.237
344.753 0.236
347.327 0.235
349.929 0.234
352.560 0.233
355.221 0.232
357.911 0.231
360.629 0.23
363.378 0.229
366.157 0.228
368.968 0.227
371.809 0.226
374.680 0.225
377.585 0.224
380.521 0.223
383.490 0.222
386.492 0.221
389.528 0.22
392.596 0.219
395.699 0.218
398.837 0.217
402.009 0.216
405.217 0.215
408.460 0.214
411.740 0.213
415.056 0.212
418.409 0.211
421.800 0.21
425.229 0.209
428.696 0.208
432.202 0.207
435.748 0.206
439.333 0.205
442.959 0.204
446.625 0.203
450.333 0.202
454.083 0.201
457.875 0.2
461.710 0.199
465.588 0.198
469.510 0.197
473.477 0.196
477.489 0.195
481.546 0.194
485.650 0.193
489.801 0.192
493.998 0.191
498.244 0.19
502.538 0.189
506.881 0.188
511.274 0.187
515.717 0.186
520.211 0.185
524.757 0.184
529.355 0.183
534.005 0.182
538.709 0.181
543.467 0.18
548.280 0.179
553.148 0.178
558.073 0.177
563.054 0.176
568.092 0.175
