# TIME w/ HKMBv2, calibrated against CX69932 (Historic BLISS Calibration)
# Calibration data taken from 20210311 to 20210601
# Constrained by data from 0.262K to 279.5K, extrapolated elsewhere
# Calibration generated 2021-06-02 08:23:25.793950, verified monotonic
# R[Ohms] T[K]
102.350 325
102.408 324
102.466 323
102.524 322
102.582 321
102.640 320
102.698 319
102.756 318
102.813 317
102.871 316
102.928 315
102.986 314
103.043 313
103.100 312
103.158 311
103.215 310
103.272 309
103.329 308
103.386 307
103.443 306
103.500 305
103.557 304
103.614 303
103.670 302
103.727 301
103.783 300
103.840 299
103.896 298
103.953 297
104.009 296
104.065 295
104.122 294
104.178 293
104.234 292
104.290 291
104.346 290
104.402 289
104.457 288
104.513 287
104.569 286
104.624 285
104.680 284
104.735 283
104.791 282
104.846 281
104.901 280
104.941 279
104.993 278
105.051 277
105.108 276
105.165 275
105.224 274
105.281 273
105.338 272
105.395 271
105.452 270
105.508 269
105.564 268
105.620 267
105.675 266
105.732 265
105.787 264
105.843 263
105.897 262
105.951 261
106.005 260
106.060 259
106.115 258
106.169 257
106.222 256
106.276 255
106.330 254
106.383 253
106.437 252
106.489 251
106.540 250
106.592 249
106.644 248
106.696 247
106.749 246
106.800 245
106.853 244
106.906 243
106.959 242
107.011 241
107.063 240
107.115 239
107.167 238
107.218 237
107.269 236
107.320 235
107.372 234
107.424 233
107.475 232
107.528 231
107.580 230
107.632 229
107.683 228
107.734 227
107.786 226
107.837 225
107.889 224
107.941 223
107.992 222
108.043 221
108.094 220
108.145 219
108.197 218
108.247 217
108.298 216
108.350 215
108.402 214
108.454 213
108.507 212
108.559 211
108.611 210
108.664 209
108.718 208
108.771 207
108.825 206
108.879 205
108.934 204
108.989 203
109.044 202
109.100 201
109.155 200
109.210 199
109.266 198
109.323 197
109.379 196
109.437 195
109.495 194
109.553 193
109.611 192
109.670 191
109.730 190
109.789 189
109.849 188
109.911 187
109.972 186
110.032 185
110.093 184
110.154 183
110.216 182
110.279 181
110.343 180
110.408 179
110.475 178
110.541 177
110.608 176
110.676 175
110.743 174
110.813 173
110.881 172
110.951 171
111.021 170
111.093 169
111.165 168
111.238 167
111.313 166
111.387 165
111.461 164
111.537 163
111.612 162
111.689 161
111.768 160
111.847 159
111.926 158
112.007 157
112.089 156
112.171 155
112.255 154
112.339 153
112.424 152
112.509 151
112.597 150
112.686 149
112.776 148
112.866 147
112.957 146
113.050 145
113.143 144
113.236 143
113.331 142
113.427 141
113.525 140
113.623 139
113.723 138
113.823 137
113.926 136
114.030 135
114.134 134
114.240 133
114.348 132
114.455 131
114.563 130
114.675 129
114.787 128
114.900 127
115.015 126
115.131 125
115.250 124
115.369 123
115.490 122
115.612 121
115.735 120
115.861 119
115.988 118
116.118 117
116.249 116
116.381 115
116.516 114
116.650 113
116.788 112
116.930 111
117.072 110
117.216 109
117.362 108
117.510 107
117.660 106
117.812 105
117.967 104
118.123 103
118.282 102
118.444 101
118.609 100
118.775 99
118.947 98
119.120 97
119.294 96
119.473 95
119.654 94
119.837 93
120.022 92
120.211 91
120.401 90
120.597 89
120.795 88
120.997 87
121.202 86
121.410 85
121.624 84
121.842 83
122.059 82
122.281 81
122.508 80
122.740 79
122.975 78
123.214 77
123.458 76
123.706 75
123.959 74
124.219 73
124.481 72
124.748 71
125.021 70
125.075 69.8
125.130 69.6
125.186 69.4
125.241 69.2
125.297 69
125.353 68.8
125.410 68.6
125.466 68.4
125.525 68.2
125.583 68
125.639 67.8
125.698 67.6
125.756 67.4
125.813 67.2
125.872 67
125.930 66.8
125.988 66.6
126.047 66.4
126.107 66.2
126.166 66
126.225 65.8
126.286 65.6
126.345 65.4
126.408 65.2
126.470 65
126.530 64.8
126.591 64.6
126.653 64.4
126.716 64.2
126.777 64
126.838 63.8
126.902 63.6
126.966 63.4
127.027 63.2
127.090 63
127.155 62.8
127.219 62.6
127.282 62.4
127.347 62.2
127.410 62
127.472 61.8
127.539 61.6
127.606 61.4
127.672 61.2
127.739 61
127.804 60.8
127.871 60.6
127.939 60.4
128.008 60.2
128.076 60
128.144 59.8
128.211 59.6
128.278 59.4
128.348 59.2
128.417 59
128.486 58.8
128.556 58.6
128.625 58.4
128.695 58.2
128.765 58
128.836 57.8
128.905 57.6
128.976 57.4
129.050 57.2
129.123 57
129.196 56.8
129.269 56.6
129.342 56.4
129.417 56.2
129.491 56
129.565 55.8
129.640 55.6
129.716 55.4
129.791 55.2
129.868 55
129.944 54.8
130.018 54.6
130.097 54.4
130.174 54.2
130.252 54
130.330 53.8
130.408 53.6
130.488 53.4
130.565 53.2
130.644 53
130.728 52.8
130.807 52.6
130.885 52.4
130.970 52.2
131.053 52
131.134 51.8
131.217 51.6
131.300 51.4
131.384 51.2
131.469 51
131.554 50.8
131.639 50.6
131.723 50.4
131.809 50.2
131.897 50
131.984 49.8
132.072 49.6
132.158 49.4
132.244 49.2
132.335 49
132.425 48.8
132.514 48.6
132.607 48.4
132.697 48.2
132.786 48
132.880 47.8
132.970 47.6
133.060 47.4
133.155 47.2
133.250 47
133.345 46.8
133.442 46.6
133.535 46.4
133.631 46.2
133.728 46
133.825 45.8
133.922 45.6
134.020 45.4
134.120 45.2
134.218 45
134.319 44.8
134.417 44.6
134.518 44.4
134.623 44.2
134.727 44
134.830 43.8
134.933 43.6
135.039 43.4
135.147 43.2
135.252 43
135.357 42.8
135.462 42.6
135.567 42.4
135.676 42.2
135.787 42
135.899 41.8
136.011 41.6
136.120 41.4
136.235 41.2
136.350 41
136.464 40.8
136.578 40.6
136.694 40.4
136.810 40.2
136.928 40
137.048 39.8
137.165 39.6
137.283 39.4
137.403 39.2
137.526 39
137.649 38.8
137.774 38.6
137.899 38.4
138.023 38.2
138.148 38
138.274 37.8
138.400 37.6
138.532 37.4
138.667 37.2
138.797 37
138.928 36.8
139.062 36.6
139.194 36.4
139.330 36.2
139.468 36
139.607 35.8
139.746 35.6
139.883 35.4
140.023 35.2
140.168 35
140.311 34.8
140.453 34.6
140.600 34.4
140.747 34.2
140.898 34
141.051 33.8
141.205 33.6
141.356 33.4
141.504 33.2
141.659 33
141.821 32.8
141.977 32.6
142.136 32.4
142.300 32.2
142.460 32
142.625 31.8
142.792 31.6
142.961 31.4
143.130 31.2
143.299 31
143.471 30.8
143.644 30.6
143.819 30.4
143.998 30.2
144.179 30
144.268 29.9
144.356 29.8
144.448 29.7
144.545 29.6
144.636 29.5
144.726 29.4
144.817 29.3
144.913 29.2
145.010 29.1
145.102 29
145.199 28.9
145.293 28.8
145.390 28.7
145.492 28.6
145.589 28.5
145.687 28.4
145.785 28.3
145.882 28.2
145.981 28.1
146.084 28
146.183 27.9
146.283 27.8
146.391 27.7
146.492 27.6
146.589 27.5
146.695 27.4
146.803 27.3
146.907 27.2
147.012 27.1
147.118 27
147.225 26.9
147.332 26.8
147.435 26.7
147.545 26.6
147.658 26.5
147.765 26.4
147.874 26.3
147.985 26.2
148.096 26.1
148.210 26
148.326 25.9
148.441 25.8
148.554 25.7
148.669 25.6
148.787 25.5
148.903 25.4
149.017 25.3
149.136 25.2
149.260 25.1
149.380 25
149.500 24.9
149.621 24.8
149.741 24.7
149.861 24.6
149.989 24.5
150.118 24.4
150.246 24.3
150.370 24.2
150.489 24.1
150.618 24
150.749 23.9
150.875 23.8
151.003 23.7
151.140 23.6
151.275 23.5
151.411 23.4
151.541 23.3
151.676 23.2
151.812 23.1
151.946 23
152.087 22.9
152.224 22.8
152.365 22.7
152.505 22.6
152.650 22.5
152.796 22.4
152.942 22.3
153.089 22.2
153.231 22.1
153.385 22
153.536 21.9
153.678 21.8
153.828 21.7
153.980 21.6
154.134 21.5
154.288 21.4
154.441 21.3
154.598 21.2
154.758 21.1
154.918 21
155.079 20.9
155.237 20.8
155.391 20.7
155.555 20.6
155.728 20.5
155.898 20.4
156.067 20.3
156.233 20.2
156.399 20.1
156.566 20
156.741 19.9
156.922 19.8
157.094 19.7
157.269 19.6
157.449 19.5
157.635 19.4
157.817 19.3
157.996 19.2
158.178 19.1
158.366 19
158.559 18.9
158.758 18.8
158.958 18.7
159.149 18.6
159.344 18.5
159.539 18.4
159.735 18.3
159.937 18.2
160.137 18.1
160.340 18
160.550 17.9
160.757 17.8
160.967 17.7
161.178 17.6
161.392 17.5
161.608 17.4
161.827 17.3
162.045 17.2
162.266 17.1
162.490 17
162.712 16.9
162.939 16.8
163.172 16.7
163.406 16.6
163.639 16.5
163.875 16.4
164.119 16.3
164.361 16.2
164.608 16.1
164.853 16
165.097 15.9
165.349 15.8
165.604 15.7
165.863 15.6
166.123 15.5
166.389 15.4
166.657 15.3
166.921 15.2
167.191 15.1
167.465 15
167.740 14.9
168.025 14.8
168.306 14.7
168.589 14.6
168.882 14.5
169.177 14.4
169.469 14.3
169.766 14.2
170.067 14.1
170.377 14
170.691 13.9
171.001 13.8
171.320 13.7
171.642 13.6
171.961 13.5
172.289 13.4
172.625 13.3
172.963 13.2
173.298 13.1
173.636 13
173.988 12.9
174.347 12.8
174.710 12.7
175.076 12.6
175.442 12.5
175.810 12.4
176.191 12.3
176.574 12.2
176.959 12.1
177.350 12
177.749 11.9
178.155 11.8
178.562 11.7
178.975 11.6
179.394 11.5
179.818 11.4
180.251 11.3
180.689 11.2
181.132 11.1
181.580 11
182.035 10.9
182.503 10.8
182.974 10.7
183.435 10.6
183.926 10.5
184.432 10.4
184.931 10.3
185.440 10.2
185.953 10.1
186.478 10
187.009 9.9
187.540 9.8
188.094 9.7
188.660 9.6
189.231 9.5
189.812 9.4
190.395 9.3
190.990 9.2
191.589 9.1
192.205 9
192.837 8.9
193.479 8.8
194.140 8.7
194.805 8.6
195.478 8.5
196.165 8.4
196.866 8.3
197.588 8.2
198.312 8.1
199.051 8
199.199 7.98
199.351 7.96
199.514 7.94
199.672 7.92
199.822 7.9
199.979 7.88
200.136 7.86
200.287 7.84
200.436 7.82
200.586 7.8
200.747 7.78
200.909 7.76
201.064 7.74
201.224 7.72
201.387 7.7
201.548 7.68
201.712 7.66
201.879 7.64
202.036 7.62
202.190 7.6
202.349 7.58
202.512 7.56
202.687 7.54
202.856 7.52
203.023 7.5
203.188 7.48
203.353 7.46
203.524 7.44
203.697 7.42
203.870 7.4
204.038 7.38
204.205 7.36
204.373 7.34
204.546 7.32
204.724 7.3
204.899 7.28
205.073 7.26
205.253 7.24
205.433 7.22
205.608 7.2
205.782 7.18
205.956 7.16
206.139 7.14
206.324 7.12
206.458 7.1
206.544 7.08
206.629 7.06
206.715 7.04
206.802 7.02
206.888 7
206.974 6.98
207.061 6.96
207.147 6.94
207.233 6.92
207.320 6.9
207.406 6.88
207.492 6.86
207.579 6.84
207.665 6.82
207.751 6.8
207.838 6.78
207.924 6.76
208.010 6.74
208.097 6.72
208.183 6.7
208.269 6.68
208.356 6.66
208.442 6.64
208.528 6.62
208.615 6.6
208.701 6.58
208.787 6.56
208.874 6.54
208.959 6.52
209.044 6.5
209.195 6.48
209.414 6.46
209.622 6.44
209.821 6.42
210.020 6.4
210.228 6.38
210.437 6.36
210.638 6.34
210.842 6.32
211.050 6.3
211.264 6.28
211.480 6.26
211.694 6.24
211.911 6.22
212.129 6.2
212.348 6.18
212.572 6.16
212.801 6.14
213.029 6.12
213.256 6.1
213.485 6.08
213.713 6.06
213.943 6.04
214.174 6.02
214.408 6
214.643 5.98
214.880 5.96
215.114 5.94
215.353 5.92
215.598 5.9
215.840 5.88
216.082 5.86
216.326 5.84
216.573 5.82
216.824 5.8
217.074 5.78
217.325 5.76
217.581 5.74
217.840 5.72
218.097 5.7
218.354 5.68
218.614 5.66
218.875 5.64
219.141 5.62
219.410 5.6
219.679 5.58
219.950 5.56
220.221 5.54
220.495 5.52
220.772 5.5
221.050 5.48
221.330 5.46
221.611 5.44
221.894 5.42
222.182 5.4
222.472 5.38
222.763 5.36
223.057 5.34
223.353 5.32
223.652 5.3
223.952 5.28
224.253 5.26
224.561 5.24
224.862 5.22
225.170 5.2
225.492 5.18
225.808 5.16
226.125 5.14
226.443 5.12
226.761 5.1
227.089 5.08
227.415 5.06
227.741 5.04
228.075 5.02
228.410 5
228.747 4.98
229.089 4.96
229.430 4.94
229.769 4.92
230.116 4.9
230.472 4.88
230.824 4.86
231.175 4.84
231.534 4.82
231.899 4.8
232.262 4.78
232.628 4.76
233.001 4.74
233.374 4.72
233.750 4.7
234.132 4.68
234.514 4.66
234.897 4.64
235.293 4.62
235.688 4.6
236.084 4.58
236.487 4.56
236.887 4.54
237.294 4.52
237.703 4.5
238.114 4.48
238.532 4.46
238.952 4.44
239.386 4.42
239.819 4.4
240.244 4.38
240.685 4.36
241.130 4.34
241.571 4.32
242.017 4.3
242.473 4.28
242.930 4.26
243.388 4.24
243.856 4.22
244.324 4.2
244.795 4.18
245.280 4.16
245.767 4.14
246.249 4.12
246.747 4.1
247.257 4.08
247.759 4.06
248.269 4.04
248.787 4.02
249.304 4
249.820 3.98
250.343 3.96
250.884 3.94
251.434 3.92
251.980 3.9
252.525 3.88
253.072 3.86
253.632 3.84
254.204 3.82
254.781 3.8
255.358 3.78
255.948 3.76
256.537 3.74
257.130 3.72
257.735 3.7
258.337 3.68
258.951 3.66
259.583 3.64
260.232 3.62
260.860 3.6
261.499 3.58
262.163 3.56
262.819 3.54
263.487 3.52
264.157 3.5
264.841 3.48
265.543 3.46
266.237 3.44
266.939 3.42
267.659 3.4
268.390 3.38
269.120 3.36
269.861 3.34
270.616 3.32
271.373 3.3
272.140 3.28
272.922 3.26
273.715 3.24
274.512 3.22
275.316 3.2
276.132 3.18
276.958 3.16
277.777 3.14
278.628 3.12
279.510 3.1
280.426 3.08
281.295 3.06
282.155 3.04
283.081 3.02
284.004 3
284.938 2.98
285.884 2.96
286.839 2.94
287.812 2.92
288.781 2.9
289.776 2.88
290.808 2.86
291.844 2.84
292.889 2.82
293.945 2.8
295.017 2.78
296.105 2.76
297.208 2.74
298.326 2.72
299.463 2.7
300.696 2.68
301.864 2.66
302.974 2.64
304.187 2.62
305.421 2.6
306.679 2.58
307.955 2.56
309.252 2.54
310.565 2.52
311.887 2.5
313.237 2.48
314.610 2.46
315.995 2.44
317.430 2.42
318.906 2.4
320.383 2.38
321.854 2.36
323.376 2.34
324.981 2.32
326.553 2.3
328.137 2.28
329.788 2.26
331.434 2.24
333.178 2.22
334.951 2.2
336.687 2.18
338.491 2.16
340.315 2.14
342.171 2.12
344.115 2.1
346.070 2.08
348.034 2.06
350.019 2.04
352.071 2.02
354.237 2
355.319 1.99
356.406 1.98
357.509 1.97
358.623 1.96
359.750 1.95
360.907 1.94
362.062 1.93
363.239 1.92
364.425 1.91
365.604 1.9
366.780 1.89
367.969 1.88
369.191 1.87
370.436 1.86
371.705 1.85
372.986 1.84
374.275 1.83
375.574 1.82
376.888 1.81
378.217 1.8
379.583 1.79
380.969 1.78
382.363 1.77
383.769 1.76
385.187 1.75
386.620 1.74
388.070 1.73
389.550 1.72
391.036 1.71
392.534 1.7
394.059 1.69
395.604 1.68
397.169 1.67
398.756 1.66
400.370 1.65
402.004 1.64
403.661 1.63
405.341 1.62
407.045 1.61
408.773 1.6
410.522 1.59
412.293 1.58
414.089 1.57
415.914 1.56
417.765 1.55
419.642 1.54
421.546 1.53
423.477 1.52
425.436 1.51
427.426 1.5
429.445 1.49
431.494 1.48
433.575 1.47
435.686 1.46
437.832 1.45
440.011 1.44
442.226 1.43
444.475 1.42
446.758 1.41
449.078 1.4
451.436 1.39
453.834 1.38
456.269 1.37
458.745 1.36
461.266 1.35
463.831 1.34
466.442 1.33
469.095 1.32
471.792 1.31
474.533 1.3
477.322 1.29
480.164 1.28
483.060 1.27
486.009 1.26
489.012 1.25
492.073 1.24
495.185 1.23
498.353 1.22
501.587 1.21
504.888 1.2
508.253 1.19
511.684 1.18
515.184 1.17
518.750 1.16
522.390 1.15
526.110 1.14
529.905 1.13
533.777 1.12
537.735 1.11
541.778 1.1
545.910 1.09
550.130 1.08
554.443 1.07
558.855 1.06
563.369 1.05
567.987 1.04
572.711 1.03
577.541 1.02
582.484 1.01
587.549 1
592.750 0.99
598.085 0.98
603.557 0.97
609.160 0.96
614.896 0.95
620.788 0.94
626.839 0.93
633.054 0.92
639.432 0.91
645.980 0.9
652.701 0.89
659.610 0.88
666.757 0.87
674.115 0.86
681.635 0.85
689.351 0.84
697.311 0.83
705.538 0.82
714.067 0.81
722.914 0.8
723.815 0.799
724.720 0.798
725.626 0.797
726.535 0.796
727.447 0.795
728.362 0.794
729.278 0.793
730.198 0.792
731.119 0.791
732.044 0.79
732.971 0.789
733.900 0.788
734.832 0.787
735.766 0.786
736.703 0.785
737.643 0.784
738.585 0.783
739.530 0.782
740.478 0.781
741.429 0.78
742.383 0.779
743.341 0.778
744.302 0.777
745.267 0.776
746.236 0.775
747.209 0.774
748.184 0.773
749.163 0.772
750.145 0.771
751.130 0.77
752.118 0.769
753.109 0.768
754.104 0.767
755.102 0.766
756.103 0.765
757.107 0.764
758.115 0.763
759.127 0.762
760.142 0.761
761.159 0.76
762.180 0.759
763.205 0.758
764.232 0.757
765.263 0.756
766.298 0.755
767.337 0.754
768.378 0.753
769.424 0.752
770.472 0.751
771.524 0.75
772.580 0.749
773.640 0.748
774.703 0.747
775.770 0.746
776.841 0.745
777.916 0.744
778.994 0.743
780.076 0.742
781.162 0.741
782.252 0.74
783.346 0.739
784.445 0.738
785.548 0.737
786.655 0.736
787.766 0.735
788.879 0.734
789.996 0.733
791.117 0.732
792.242 0.731
793.371 0.73
794.505 0.729
795.642 0.728
796.782 0.727
797.927 0.726
799.076 0.725
800.230 0.724
801.388 0.723
802.550 0.722
803.716 0.721
804.886 0.72
806.061 0.719
807.240 0.718
808.423 0.717
809.611 0.716
810.802 0.715
811.999 0.714
813.200 0.713
814.405 0.712
815.615 0.711
816.829 0.71
818.046 0.709
819.269 0.708
820.496 0.707
821.727 0.706
822.965 0.705
824.207 0.704
825.453 0.703
826.704 0.702
827.960 0.701
829.220 0.7
830.486 0.699
831.756 0.698
833.031 0.697
834.311 0.696
835.596 0.695
836.885 0.694
838.180 0.693
839.480 0.692
840.785 0.691
842.095 0.69
843.410 0.689
844.730 0.688
846.055 0.687
847.385 0.686
848.721 0.685
850.063 0.684
851.409 0.683
852.760 0.682
854.117 0.681
855.480 0.68
856.847 0.679
858.220 0.678
859.598 0.677
860.982 0.676
862.370 0.675
863.764 0.674
865.164 0.673
866.570 0.672
867.980 0.671
869.397 0.67
870.818 0.669
872.246 0.668
873.679 0.667
875.117 0.666
876.562 0.665
878.013 0.664
879.470 0.663
880.932 0.662
882.400 0.661
883.873 0.66
885.353 0.659
886.838 0.658
888.330 0.657
889.827 0.656
891.330 0.655
892.840 0.654
894.356 0.653
895.878 0.652
897.406 0.651
898.941 0.65
900.482 0.649
902.030 0.648
903.584 0.647
905.144 0.646
906.711 0.645
908.284 0.644
909.864 0.643
911.452 0.642
913.045 0.641
914.646 0.64
916.252 0.639
917.865 0.638
919.485 0.637
921.111 0.636
922.745 0.635
924.385 0.634
926.031 0.633
927.685 0.632
929.346 0.631
931.015 0.63
932.690 0.629
934.373 0.628
936.065 0.627
937.764 0.626
939.468 0.625
941.180 0.624
942.900 0.623
944.626 0.622
946.361 0.621
948.103 0.62
949.853 0.619
951.611 0.618
953.376 0.617
955.149 0.616
956.929 0.615
958.718 0.614
960.515 0.613
962.320 0.612
964.133 0.611
965.953 0.61
967.782 0.609
969.621 0.608
971.469 0.607
973.324 0.606
975.188 0.605
977.059 0.604
978.939 0.603
980.828 0.602
982.726 0.601
984.632 0.6
986.547 0.599
988.471 0.598
990.404 0.597
992.346 0.596
994.297 0.595
996.256 0.594
998.225 0.593
1000.204 0.592
1002.192 0.591
1004.189 0.59
1006.196 0.589
1008.214 0.588
1010.241 0.587
1012.276 0.586
1014.322 0.585
1016.377 0.584
1018.442 0.583
1020.517 0.582
1022.602 0.581
1024.697 0.58
1026.802 0.579
1028.917 0.578
1031.042 0.577
1033.178 0.576
1035.324 0.575
1037.480 0.574
1039.647 0.573
1041.825 0.572
1044.013 0.571
1046.211 0.57
1048.420 0.569
1050.640 0.568
1052.871 0.567
1055.112 0.566
1057.365 0.565
1059.628 0.564
1061.902 0.563
1064.187 0.562
1066.484 0.561
1068.792 0.56
1071.111 0.559
1073.442 0.558
1075.785 0.557
1078.139 0.556
1080.505 0.555
1082.883 0.554
1085.272 0.553
1087.673 0.552
1090.086 0.551
1092.511 0.55
1094.949 0.549
1097.399 0.548
1099.861 0.547
1102.335 0.546
1104.822 0.545
1107.321 0.544
1109.834 0.543
1112.359 0.542
1114.896 0.541
1117.447 0.54
1120.011 0.539
1122.589 0.538
1125.180 0.537
1127.786 0.536
1130.405 0.535
1133.040 0.534
1135.688 0.533
1138.350 0.532
1141.026 0.531
1143.717 0.53
1146.423 0.529
1149.143 0.528
1151.878 0.527
1154.626 0.526
1157.389 0.525
1160.168 0.524
1162.963 0.523
1165.774 0.522
1168.600 0.521
1171.442 0.52
1174.301 0.519
1177.175 0.518
1180.061 0.517
1182.965 0.516
1185.884 0.515
1188.820 0.514
1191.773 0.513
1194.742 0.512
1197.729 0.511
1200.734 0.51
1203.755 0.509
1206.793 0.508
1209.848 0.507
1212.920 0.506
1216.011 0.505
1219.122 0.504
1222.244 0.503
1225.382 0.502
1228.543 0.501
1231.723 0.5
1234.921 0.499
1238.137 0.498
1241.371 0.497
1244.624 0.496
1247.896 0.495
1251.186 0.494
1254.496 0.493
1257.826 0.492
1261.175 0.491
1264.543 0.49
1267.932 0.489
1271.341 0.488
1274.772 0.487
1278.219 0.486
1281.682 0.485
1285.168 0.484
1288.675 0.483
1292.204 0.482
1295.753 0.481
1299.324 0.48
1302.917 0.479
1306.532 0.478
1310.168 0.477
1313.827 0.476
1317.509 0.475
1321.214 0.474
1324.942 0.473
1328.692 0.472
1332.466 0.471
1336.264 0.47
1340.085 0.469
1343.936 0.468
1347.811 0.467
1351.697 0.466
1355.610 0.465
1359.547 0.464
1363.510 0.463
1367.500 0.462
1371.515 0.461
1375.556 0.46
1379.625 0.459
1383.720 0.458
1387.841 0.457
1391.988 0.456
1396.163 0.455
1400.365 0.454
1404.596 0.453
1408.854 0.452
1413.139 0.451
1417.453 0.45
1421.795 0.449
1426.167 0.448
1430.568 0.447
1435.003 0.446
1439.466 0.445
1443.949 0.444
1448.462 0.443
1453.005 0.442
1457.580 0.441
1462.186 0.44
1466.825 0.439
1471.494 0.438
1476.196 0.437
1480.932 0.436
1485.701 0.435
1490.503 0.434
1495.337 0.433
1500.205 0.432
1505.107 0.431
1510.044 0.43
1515.014 0.429
1520.019 0.428
1525.059 0.427
1530.136 0.426
1535.248 0.425
1540.398 0.424
1545.584 0.423
1550.807 0.422
1556.067 0.421
1561.368 0.42
1566.705 0.419
1572.070 0.418
1577.475 0.417
1582.921 0.416
1588.405 0.415
1593.929 0.414
1599.492 0.413
1605.098 0.412
1610.748 0.411
1616.442 0.41
1622.167 0.409
1627.932 0.408
1633.746 0.407
1639.604 0.406
1645.507 0.405
1651.457 0.404
1657.444 0.403
1663.484 0.402
1669.577 0.401
1675.711 0.4
1681.895 0.399
1688.126 0.398
1694.405 0.397
1700.735 0.396
1707.115 0.395
1713.542 0.394
1720.020 0.393
1726.548 0.392
1733.128 0.391
1739.759 0.39
1746.443 0.389
1753.179 0.388
1759.968 0.387
1766.809 0.386
1773.702 0.385
1780.648 0.384
1787.645 0.383
1794.698 0.382
1801.810 0.381
1808.987 0.38
1816.223 0.379
1823.506 0.378
1830.851 0.377
1838.260 0.376
1845.733 0.375
1853.250 0.374
1860.845 0.373
1868.519 0.372
1876.254 0.371
1884.047 0.37
1891.896 0.369
1899.815 0.368
1907.800 0.367
1915.845 0.366
1923.966 0.365
1932.149 0.364
1940.389 0.363
1948.708 0.362
1957.108 0.361
1965.580 0.36
1974.128 0.359
1982.746 0.358
1991.423 0.357
2000.188 0.356
2009.032 0.355
2017.954 0.354
2026.953 0.353
2036.035 0.352
2045.206 0.351
2054.455 0.35
2063.768 0.349
2073.166 0.348
2082.649 0.347
2092.219 0.346
2101.863 0.345
2111.595 0.344
2121.429 0.343
2131.354 0.342
2141.371 0.341
2151.484 0.34
2161.688 0.339
2171.980 0.338
2182.364 0.337
2192.847 0.336
2203.438 0.335
2214.133 0.334
2224.931 0.333
2235.827 0.332
2246.813 0.331
2257.917 0.33
2269.134 0.329
2280.459 0.328
2291.915 0.327
2303.479 0.326
2315.134 0.325
2326.912 0.324
2338.813 0.323
2350.822 0.322
2362.934 0.321
2375.157 0.32
2387.503 0.319
2399.970 0.318
2412.563 0.317
2425.276 0.316
2438.110 0.315
2451.084 0.314
2464.188 0.313
2477.394 0.312
2490.689 0.311
2504.125 0.31
2517.704 0.309
2531.441 0.308
2545.337 0.307
2559.384 0.306
2573.587 0.305
2587.948 0.304
2602.466 0.303
2617.150 0.302
2631.999 0.301
2647.010 0.3
2662.189 0.299
2677.537 0.298
2693.055 0.297
2708.747 0.296
2724.608 0.295
2740.644 0.294
2756.857 0.293
2773.249 0.292
2789.820 0.291
2806.572 0.29
2823.504 0.289
2840.620 0.288
2857.920 0.287
2875.405 0.286
2893.069 0.285
2910.920 0.284
2928.970 0.283
2947.213 0.282
2965.652 0.281
2984.286 0.28
3003.108 0.279
3022.125 0.278
3041.351 0.277
3060.780 0.276
3080.409 0.275
3100.241 0.274
3120.301 0.273
3140.560 0.272
3161.012 0.271
3181.672 0.27
3202.547 0.269
3223.646 0.268
3244.956 0.267
3266.473 0.266
3288.209 0.265
3310.164 0.264
3332.345 0.263
3354.766 0.262
3377.411 0.261
3400.276 0.26
3423.372 0.259
3446.695 0.258
3470.254 0.257
3494.068 0.256
3518.114 0.255
3542.401 0.254
3566.934 0.253
3591.715 0.252
3616.742 0.251
3642.009 0.25
3667.529 0.249
3693.322 0.248
3719.378 0.247
3745.700 0.246
3772.289 0.245
3799.155 0.244
3826.297 0.243
3853.714 0.242
3881.414 0.241
3909.398 0.24
3937.667 0.239
3966.230 0.238
3995.096 0.237
4024.273 0.236
4053.761 0.235
4083.552 0.234
4113.655 0.233
4144.073 0.232
4174.818 0.231
4205.909 0.23
4237.326 0.229
4269.073 0.228
4301.162 0.227
4333.568 0.226
4366.313 0.225
4399.374 0.224
4432.779 0.223
4466.533 0.222
4500.638 0.221
4535.099 0.22
4569.919 0.219
4605.102 0.218
4640.652 0.217
4676.572 0.216
4712.866 0.215
4749.538 0.214
4786.592 0.213
4824.032 0.212
4861.862 0.211
4900.085 0.21
4938.705 0.209
4977.728 0.208
5017.155 0.207
5056.993 0.206
5097.244 0.205
5137.913 0.204
5179.003 0.203
5220.520 0.202
5262.467 0.201
5304.849 0.2
5347.670 0.199
5390.933 0.198
5434.644 0.197
5478.807 0.196
5523.425 0.195
5568.504 0.194
5614.048 0.193
5660.061 0.192
5706.548 0.191
5753.513 0.19
5800.961 0.189
5848.897 0.188
5897.324 0.187
5946.248 0.186
5995.673 0.185
6045.605 0.184
6096.046 0.183
6147.003 0.182
6198.481 0.181
6250.483 0.18
6303.014 0.179
6356.081 0.178
6409.686 0.177
6463.836 0.176
6518.536 0.175
