# TIME w/ LS370, calibrated against X107797
# Calibration data taken from 20160302 to 20181030
# Constrained by data from 0.771K to 162.5K, extrapolated elsewhere
# Calibration generated 2019-07-23 17:42:11.366189, verified monotonic
# Chopped to <90K because the sensor is non-monotonic above this
# R[Ohms] T[K]
3.063 90
3.233 85
3.440 80
3.697 75
4.008 70
4.080 69
4.157 68
4.235 67
4.319 66
4.409 65
4.504 64
4.600 63
4.703 62
4.812 61
4.923 60
5.041 59
5.168 58
5.307 57
5.453 56
5.603 55
5.764 54
5.938 53
6.118 52
6.312 51
6.527 50
6.748 49
6.985 48
7.243 47
7.514 46
7.816 45
8.142 44
8.482 43
8.851 42
9.264 41
9.712 40
10.201 39
10.736 38
11.302 37
11.916 36
12.620 35
13.395 34
14.268 33
15.249 32
16.313 31
17.459 30
18.099 29.5
18.790 29
19.528 28.5
20.342 28
21.185 27.5
22.075 27
23.022 26.5
24.065 26
25.129 25.5
26.343 25
27.621 24.5
29.015 24
30.532 23.5
32.255 23
34.124 22.5
35.859 22
37.583 21.5
39.819 21
42.426 20.5
45.126 20
48.103 19.5
51.074 19
54.196 18.5
58.374 18
63.122 17.5
68.015 17
73.017 16.5
78.050 16
84.526 15.5
92.330 15
101.086 14.5
111.156 14
121.392 13.5
133.402 13
147.948 12.5
163.466 12
184.419 11.5
206.445 11
228.211 10.5
255.972 10
295.807 9.5
339.229 9
380.861 8.5
438.728 8
452.459 7.9
466.217 7.8
479.972 7.7
493.029 7.6
506.492 7.5
524.043 7.4
540.984 7.3
557.384 7.2
574.248 7.1
591.743 7
610.767 6.9
632.890 6.8
652.244 6.7
672.580 6.6
696.749 6.5
719.735 6.4
742.604 6.3
768.078 6.2
795.950 6.1
824.037 6
853.692 5.9
888.507 5.8
921.335 5.7
951.835 5.6
987.453 5.5
1026.827 5.4
1069.295 5.3
1112.661 5.2
1159.363 5.1
1202.671 5
1254.943 4.9
1310.283 4.8
1368.644 4.7
1433.910 4.6
1501.666 4.5
1577.631 4.4
1658.481 4.3
1740.966 4.2
1825.609 4.1
1928.418 4
2043.477 3.9
2165.382 3.8
2297.298 3.7
2449.802 3.6
2616.570 3.5
2801.988 3.4
3016.682 3.3
3228.799 3.2
3476.413 3.1
3774.665 3
4106.644 2.9
4502.654 2.8
4961.869 2.7
5486.034 2.6
6124.866 2.5
6836.984 2.4
7754.257 2.3
8759.377 2.2
10086.962 2.1
11601.868 2
11776.630 1.99
11956.685 1.98
12135.289 1.97
12313.348 1.96
12499.071 1.95
12699.471 1.94
12909.264 1.93
13127.040 1.92
13350.336 1.91
13580.051 1.9
13808.797 1.89
14035.338 1.88
14262.791 1.87
14497.267 1.86
14744.354 1.85
15006.502 1.84
15280.566 1.83
15555.820 1.82
15828.354 1.81
16104.878 1.8
16385.019 1.79
16671.625 1.78
16972.457 1.77
17287.689 1.76
17619.612 1.75
17963.136 1.74
18309.848 1.73
18657.838 1.72
19009.444 1.71
19377.107 1.7
19772.823 1.69
20183.689 1.68
20592.160 1.67
21004.944 1.66
21432.162 1.65
21877.438 1.64
22344.933 1.63
22827.643 1.62
23307.974 1.61
23786.763 1.6
24289.516 1.59
24818.164 1.58
25371.968 1.57
25950.082 1.56
26540.351 1.55
27143.704 1.54
27761.556 1.53
28399.585 1.52
29056.378 1.51
29719.819 1.5
30380.696 1.49
31042.830 1.48
31727.739 1.47
32406.048 1.46
33093.934 1.45
33838.447 1.44
34678.108 1.43
35624.709 1.42
36663.520 1.41
37743.232 1.4
38774.927 1.39
39790.037 1.38
40885.791 1.37
42105.463 1.36
43453.606 1.35
44908.051 1.34
46408.252 1.33
47873.704 1.32
49261.418 1.31
50525.995 1.3
51769.681 1.29
53054.303 1.28
54530.968 1.27
56278.782 1.26
58226.775 1.25
60246.184 1.24
62276.524 1.23
64265.872 1.22
66284.270 1.21
68487.790 1.2
70776.767 1.19
73187.415 1.18
75752.913 1.17
78469.916 1.16
81183.690 1.15
84073.016 1.14
87156.817 1.13
90343.246 1.12
93824.765 1.11
97575.269 1.1
101455.812 1.09
105353.491 1.08
109456.068 1.07
113875.412 1.06
118579.244 1.05
123598.716 1.04
128941.144 1.03
134298.255 1.02
139737.090 1.01
145856.749 1
152194.230 0.99
158900.737 0.98
166304.391 0.97
174699.936 0.96
183721.585 0.95
192816.870 0.94
202164.277 0.93
211844.222 0.92
222089.607 0.91
233389.204 0.9
245907.283 0.89
259323.095 0.88
273500.976 0.87
288928.164 0.86
305846.745 0.85
323595.606 0.84
342575.717 0.83
362919.262 0.82
384775.277 0.81
408362.047 0.8
410828.073 0.799
413315.078 0.798
415823.455 0.797
418353.608 0.796
420905.949 0.795
423480.899 0.794
426078.887 0.793
428700.354 0.792
431345.747 0.791
434015.523 0.79
436710.148 0.789
439430.096 0.788
442175.852 0.787
444947.909 0.786
447746.768 0.785
450572.939 0.784
453426.944 0.783
456309.309 0.782
459220.573 0.781
462161.283 0.78
465131.994 0.779
468133.270 0.778
471165.685 0.777
474229.821 0.776
477326.270 0.775
480455.632 0.774
483618.517 0.773
486815.542 0.772
490047.335 0.771
