# TIME w/ LS370, calibrated against X107797
# Calibration data taken from 20181211 to 20181231
# Constrained by data from 0.855K to 294.8K, extrapolated elsewhere
# Calibration generated 2019-07-22 13:11:50.252935, verified monotonic
# R[Ohms] T[K]
69.863 325
69.976 324
70.092 323
70.211 322
70.333 321
70.458 320
70.587 319
70.718 318
70.852 317
70.990 316
71.130 315
71.274 314
71.420 313
71.570 312
71.723 311
71.879 310
72.037 309
72.199 308
72.364 307
72.532 306
72.703 305
72.878 304
73.055 303
73.235 302
73.418 301
73.605 300
73.794 299
73.987 298
74.182 297
74.381 296
74.586 295
74.898 294
74.913 293
75.005 292
75.244 291
75.462 290
75.689 289
75.935 288
76.186 287
76.450 286
76.711 285
76.958 284
77.210 283
77.462 282
77.727 281
77.983 280
78.241 279
78.524 278
78.789 277
79.036 276
79.321 275
79.600 274
79.860 273
80.149 272
80.448 271
80.728 270
81.002 269
81.277 268
81.571 267
81.905 266
82.187 265
82.445 264
82.752 263
83.054 262
83.345 261
83.652 260
83.965 259
84.282 258
84.585 257
84.902 256
85.255 255
85.575 254
85.860 253
86.182 252
86.518 251
86.837 250
87.167 249
87.531 248
87.896 247
88.231 246
88.590 245
88.924 244
89.243 243
89.630 242
90.007 241
90.362 240
90.705 239
91.068 238
91.460 237
91.835 236
92.240 235
92.646 234
92.998 233
93.371 232
93.743 231
94.149 230
94.558 229
94.977 228
95.390 227
95.780 226
96.197 225
96.631 224
97.055 223
97.470 222
97.906 221
98.323 220
98.749 219
99.210 218
99.646 217
100.099 216
100.567 215
101.040 214
101.494 213
101.936 212
102.385 211
102.864 210
103.345 209
103.862 208
104.375 207
104.871 206
105.361 205
105.847 204
106.409 203
106.938 202
107.449 201
107.984 200
108.501 199
109.038 198
109.583 197
110.142 196
110.704 195
111.289 194
111.833 193
112.355 192
112.921 191
113.553 190
114.165 189
114.761 188
115.377 187
115.944 186
116.532 185
117.183 184
117.826 183
118.474 182
119.132 181
119.774 180
120.426 179
121.088 178
121.778 177
122.505 176
123.184 175
123.860 174
124.587 173
125.284 172
125.996 171
126.762 170
127.504 169
128.225 168
128.957 167
129.770 166
130.585 165
131.343 164
132.123 163
132.929 162
133.769 161
134.566 160
135.384 159
136.270 158
137.127 157
137.992 156
138.878 155
139.775 154
140.677 153
141.614 152
142.568 151
143.449 150
144.362 149
145.348 148
146.393 147
147.387 146
148.325 145
149.338 144
150.387 143
151.461 142
152.539 141
153.613 140
154.705 139
155.794 138
156.909 137
158.038 136
159.219 135
160.409 134
161.594 133
162.770 132
163.957 131
165.231 130
166.522 129
167.826 128
169.108 127
170.428 126
171.766 125
173.122 124
174.523 123
175.948 122
177.378 121
178.833 120
180.317 119
181.860 118
183.436 117
185.011 116
186.618 115
188.258 114
189.841 113
191.443 112
193.172 111
194.857 110
196.606 109
198.466 108
200.326 107
202.193 106
203.979 105
205.766 104
207.836 103
210.008 102
212.018 101
214.108 100
216.262 99
218.306 98
220.514 97
222.836 96
225.154 95
227.467 94
229.786 93
232.322 92
234.917 91
237.370 90
239.922 89
242.670 88
245.447 87
248.222 86
250.874 85
253.654 84
256.936 83
260.157 82
263.127 81
266.248 80
269.727 79
273.115 78
276.478 77
280.002 76
283.622 75
287.516 74
291.518 73
295.400 72
299.312 71
303.723 70
304.708 69.8
305.456 69.6
306.245 69.4
306.975 69.2
307.844 69
308.916 68.8
309.838 68.6
310.646 68.4
311.357 68.2
312.174 68
313.310 67.8
314.288 67.6
315.178 67.4
316.017 67.2
316.970 67
318.122 66.8
319.171 66.6
319.977 66.4
320.754 66.2
321.706 66
322.625 65.8
323.322 65.6
324.547 65.4
325.563 65.2
326.538 65
327.815 64.8
328.845 64.6
329.521 64.4
330.479 64.2
331.501 64
332.479 63.8
333.458 63.6
334.425 63.4
335.516 63.2
336.795 63
337.875 62.8
338.886 62.6
339.923 62.4
341.060 62.2
342.120 62
343.159 61.8
344.281 61.6
345.348 61.4
346.277 61.2
347.369 61
348.817 60.8
349.826 60.6
350.956 60.4
352.262 60.2
353.261 60
354.166 59.8
355.268 59.6
356.704 59.4
358.145 59.2
359.212 59
360.171 58.8
361.424 58.6
362.766 58.4
363.736 58.2
364.794 58
366.175 57.8
367.499 57.6
368.870 57.4
370.151 57.2
371.371 57
372.898 56.8
374.244 56.6
375.344 56.4
376.439 56.2
378.081 56
379.470 55.8
380.941 55.6
382.174 55.4
383.574 55.2
384.716 55
386.058 54.8
387.645 54.6
388.702 54.4
390.457 54.2
391.831 54
393.168 53.8
394.541 53.6
396.073 53.4
397.548 53.2
398.961 53
400.452 52.8
401.773 52.6
403.431 52.4
404.863 52.2
406.227 52
408.044 51.8
409.505 51.6
410.791 51.4
412.715 51.2
414.261 51
415.752 50.8
417.296 50.6
419.006 50.4
420.815 50.2
422.479 50
424.084 49.8
425.753 49.6
427.419 49.4
429.061 49.2
430.870 49
432.702 48.8
434.086 48.6
436.249 48.4
438.191 48.2
439.895 48
441.759 47.8
443.545 47.6
445.293 47.4
447.161 47.2
449.069 47
451.019 46.8
452.769 46.6
454.475 46.4
456.465 46.2
458.087 46
460.296 45.8
462.546 45.6
464.537 45.4
466.359 45.2
468.603 45
470.602 44.8
472.723 44.6
474.923 44.4
477.087 44.2
479.075 44
481.210 43.8
483.711 43.6
486.082 43.4
487.703 43.2
490.123 43
492.570 42.8
494.818 42.6
496.973 42.4
499.663 42.2
502.148 42
504.308 41.8
506.490 41.6
509.123 41.4
511.527 41.2
514.128 41
516.755 40.8
519.156 40.6
521.419 40.4
523.906 40.2
526.589 40
529.230 39.8
531.722 39.6
534.379 39.4
537.262 39.2
540.103 39
542.955 38.8
545.648 38.6
548.139 38.4
551.135 38.2
554.027 38
556.776 37.8
559.578 37.6
562.555 37.4
565.633 37.2
568.597 37
571.646 36.8
574.753 36.6
577.794 36.4
581.003 36.2
584.294 36
587.652 35.8
590.875 35.6
594.156 35.4
597.643 35.2
600.907 35
604.212 34.8
607.609 34.6
611.037 34.4
614.623 34.2
618.330 34
622.084 33.8
625.832 33.6
629.504 33.4
633.218 33.2
636.954 33
640.522 32.8
644.409 32.6
648.849 32.4
653.003 32.2
657.042 32
660.972 31.8
665.192 31.6
669.485 31.4
673.796 31.2
678.215 31
682.453 30.8
687.005 30.6
691.857 30.4
696.295 30.2
700.659 30
702.755 29.9
704.851 29.8
707.101 29.7
709.764 29.6
712.224 29.5
714.683 29.4
717.143 29.3
719.610 29.2
722.077 29.1
724.544 29
726.949 28.9
729.312 28.8
731.676 28.7
734.051 28.6
736.731 28.5
739.418 28.4
742.105 28.3
744.872 28.2
747.741 28.1
750.610 28
753.490 27.9
754.908 27.8
757.095 27.7
760.485 27.6
763.877 27.5
766.692 27.4
769.447 27.3
772.202 27.2
775.033 27.1
778.114 27
781.193 26.9
784.272 26.8
787.209 26.7
790.010 26.6
792.811 26.5
795.612 26.4
798.525 26.3
801.521 26.2
804.517 26.1
807.513 26
810.533 25.9
813.562 25.8
816.591 25.7
819.621 25.6
822.804 25.5
826.202 25.4
829.602 25.3
833.002 25.2
836.323 25.1
839.619 25
842.915 24.9
846.210 24.8
849.506 24.7
852.802 24.6
856.099 24.5
859.395 24.4
862.878 24.3
866.612 24.2
870.348 24.1
874.084 24
877.875 23.9
881.766 23.8
885.657 23.7
889.548 23.6
893.428 23.5
897.263 23.4
901.099 23.3
904.935 23.2
908.744 23.1
911.884 23
915.008 22.9
918.213 22.8
924.433 22.7
929.083 22.6
933.232 22.5
937.382 22.4
941.531 22.3
945.739 22.2
950.037 22.1
954.335 22
958.634 21.9
962.933 21.8
967.263 21.7
971.594 21.6
975.926 21.5
980.257 21.4
984.805 21.3
989.618 21.2
994.432 21.1
999.246 21
1004.067 20.9
1008.978 20.8
1013.890 20.7
1018.801 20.6
1023.714 20.5
1028.916 20.4
1034.354 20.3
1039.792 20.2
1045.229 20.1
1050.639 20
1055.887 19.9
1061.138 19.8
1066.388 19.7
1071.639 19.6
1076.346 19.5
1080.470 19.4
1084.593 19.3
1088.691 19.2
1099.232 19.1
1106.172 19
1112.244 18.9
1118.315 18.8
1124.387 18.7
1130.504 18.6
1136.780 18.5
1143.056 18.4
1149.331 18.3
1155.607 18.2
1162.065 18.1
1168.656 18
1175.247 17.9
1181.838 17.8
1188.429 17.7
1195.435 17.6
1202.475 17.5
1209.516 17.4
1216.556 17.3
1223.726 17.2
1231.338 17.1
1238.946 17
1246.554 16.9
1254.163 16.8
1261.873 16.7
1269.649 16.6
1277.425 16.5
1285.202 16.4
1292.992 16.3
1301.704 16.2
1310.463 16.1
1319.222 16
1327.981 15.9
1336.862 15.8
1345.869 15.7
1354.876 15.6
1363.883 15.5
1372.891 15.4
1382.123 15.3
1391.370 15.2
1400.617 15.1
1409.864 15
1419.488 14.9
1429.811 14.8
1440.135 14.7
1450.460 14.6
1460.795 14.5
1471.778 14.4
1482.794 14.3
1493.810 14.2
1504.825 14.1
1516.148 14
1527.588 13.9
1539.029 13.8
1550.469 13.7
1562.258 13.6
1574.701 13.5
1587.146 13.4
1599.591 13.3
1612.206 13.2
1625.553 13.1
1638.893 13
1652.232 12.9
1665.895 12.8
1680.679 12.7
1695.452 12.6
1710.226 12.5
1725.181 12.4
1740.345 12.3
1755.510 12.2
1770.667 12.1
1786.684 12
1802.960 11.9
1819.235 11.8
1835.785 11.7
1853.505 11.6
1871.213 11.5
1888.912 11.4
1907.776 11.3
1926.788 11.2
1945.798 11.1
1965.292 11
1984.971 10.9
2004.646 10.8
2025.731 10.7
2047.397 10.6
2069.044 10.5
2092.987 10.4
2117.242 10.3
2140.619 10.2
2162.630 10.1
2184.610 10
2209.354 9.9
2234.510 9.8
2261.626 9.7
2289.947 9.6
2318.092 9.5
2346.134 9.4
2376.873 9.3
2407.595 9.2
2435.059 9.1
2466.238 9
2499.571 8.9
2531.702 8.8
2568.756 8.7
2607.475 8.6
2639.002 8.5
2674.946 8.4
2713.798 8.3
2752.737 8.2
2793.060 8.1
2835.643 8
2843.499 7.98
2851.386 7.96
2860.973 7.94
2872.104 7.92
2882.238 7.9
2891.637 7.88
2900.091 7.86
2906.998 7.84
2914.164 7.82
2924.809 7.8
2936.331 7.78
2944.674 7.76
2953.920 7.74
2966.976 7.72
2978.219 7.7
2986.052 7.68
2994.608 7.66
3003.773 7.64
3014.313 7.62
3025.099 7.6
3034.500 7.58
3042.756 7.56
3049.874 7.54
3057.828 7.52
3069.104 7.5
3081.509 7.48
3092.010 7.46
3101.827 7.44
3112.545 7.42
3123.053 7.4
3132.531 7.38
3141.838 7.36
3152.010 7.34
3164.288 7.32
3178.709 7.3
3191.185 7.28
3200.625 7.26
3209.873 7.24
3220.998 7.22
3234.837 7.2
3247.450 7.18
3256.817 7.16
3268.019 7.14
3280.370 7.12
3291.103 7.1
3302.165 7.08
3313.660 7.06
3325.190 7.04
3337.559 7.02
3349.716 7
3361.398 6.98
3374.425 6.96
3388.508 6.94
3401.090 6.92
3412.754 6.9
3423.560 6.88
3433.082 6.86
3447.868 6.84
3463.957 6.82
3475.686 6.8
3490.088 6.78
3504.766 6.76
3517.744 6.74
3531.064 6.72
3544.371 6.7
3557.566 6.68
3570.679 6.66
3584.213 6.64
3597.891 6.62
3614.937 6.6
3630.210 6.58
3643.952 6.56
3659.141 6.54
3672.441 6.52
3685.732 6.5
3702.141 6.48
3716.973 6.46
3731.256 6.44
3747.666 6.42
3761.152 6.4
3776.825 6.38
3794.674 6.36
3811.014 6.34
3821.995 6.32
3829.142 6.3
3840.210 6.28
3856.768 6.26
3875.997 6.24
3894.523 6.22
3913.186 6.2
3931.849 6.18
3950.507 6.16
3969.168 6.14
3988.095 6.12
4007.274 6.1
4026.446 6.08
4045.615 6.06
4064.785 6.04
4083.954 6.02
4103.124 6
4122.293 5.98
4141.463 5.96
4160.632 5.94
4179.802 5.92
4198.999 5.9
4218.043 5.88
4237.779 5.86
4258.779 5.84
4280.129 5.82
4301.355 5.8
4322.606 5.78
4343.857 5.76
4365.107 5.74
4386.358 5.72
4407.608 5.7
4428.859 5.68
4450.110 5.66
4471.360 5.64
4492.637 5.62
4513.727 5.6
4536.109 5.58
4560.330 5.56
4584.839 5.54
4609.227 5.52
4633.636 5.5
4658.045 5.48
4682.455 5.46
4706.864 5.44
4731.273 5.42
4755.682 5.4
4780.091 5.38
4804.504 5.36
4828.889 5.34
4853.330 5.32
4878.417 5.3
4904.031 5.28
4929.596 5.26
4955.164 5.24
4980.733 5.22
5006.302 5.2
5031.870 5.18
5057.439 5.16
5083.008 5.14
5108.577 5.12
5134.145 5.1
5159.757 5.08
5184.934 5.06
5214.156 5.04
5248.569 5.02
5283.535 5
5318.243 4.98
5352.989 4.96
5387.736 4.94
5422.482 4.92
5457.229 4.9
5491.975 4.88
5526.738 4.86
5561.398 4.84
5596.285 4.82
5633.081 4.8
5671.330 4.78
5709.409 4.76
5747.507 4.74
5785.605 4.72
5823.704 4.7
5861.802 4.68
5899.900 4.66
5938.002 4.64
5976.031 4.62
6014.124 4.6
6055.742 4.58
6100.671 4.56
6145.485 4.54
6190.276 4.52
6235.067 4.5
6279.858 4.48
6324.649 4.46
6369.440 4.44
6414.252 4.42
6458.959 4.4
6503.992 4.38
6549.994 4.36
6596.459 4.34
6642.807 4.32
6689.177 4.3
6735.546 4.28
6781.916 4.26
6828.286 4.24
6874.656 4.22
6921.018 4.2
6967.085 4.18
7018.264 4.16
7075.208 4.14
7132.411 4.12
7189.444 4.1
7246.494 4.08
7303.544 4.06
7360.594 4.04
7417.772 4.02
7474.286 4
7533.275 3.98
7597.753 3.96
7664.221 3.94
7730.068 3.92
7796.038 3.9
7862.009 3.88
7927.992 3.86
7993.840 3.84
8059.893 3.82
8130.612 3.8
8205.481 3.78
8280.114 3.76
8354.741 3.74
8429.367 3.72
8503.993 3.7
8578.885 3.68
8652.297 3.66
8732.487 3.64
8824.966 3.62
8920.790 3.6
9015.423 3.58
9110.290 3.56
9205.158 3.54
9300.086 3.52
9394.689 3.5
9490.130 3.48
9589.590 3.46
9691.592 3.44
9793.140 3.42
9894.761 3.4
9996.382 3.38
10098.004 3.36
10199.938 3.34
10299.823 3.32
10412.219 3.3
10543.499 3.28
10678.278 3.26
10811.650 3.24
10945.280 3.22
11078.910 3.2
11212.521 3.18
11346.143 3.16
11480.777 3.14
11616.379 3.12
11751.955 3.1
11887.480 3.08
12023.239 3.06
12157.963 3.04
12291.154 3.02
12421.652 3
12558.020 2.98
12718.894 2.96
12894.545 2.94
13067.424 2.92
13239.998 2.9
13419.556 2.88
13608.216 2.86
13797.927 2.84
13986.609 2.82
14183.133 2.8
14388.902 2.78
14594.242 2.76
14802.244 2.74
15019.596 2.72
15239.939 2.7
15463.095 2.68
15701.715 2.66
15946.978 2.64
16198.329 2.62
16464.800 2.6
16735.298 2.58
17002.702 2.56
17270.804 2.54
17559.121 2.52
17866.040 2.5
18172.839 2.48
18487.769 2.46
18816.423 2.44
19146.608 2.42
19488.299 2.4
19850.176 2.38
20232.701 2.36
20623.421 2.34
21009.502 2.32
21405.432 2.3
21815.956 2.28
22250.038 2.26
22709.419 2.24
23176.828 2.22
23635.836 2.2
24128.842 2.18
24619.583 2.16
25148.487 2.14
25754.574 2.12
26395.673 2.1
27015.775 2.08
27443.921 2.06
27753.740 2.04
28633.179 2.02
29709.948 2
30126.313 1.99
30458.880 1.98
30842.720 1.97
31240.906 1.96
31655.211 1.95
32091.776 1.94
32540.357 1.93
32985.031 1.92
33414.906 1.91
33836.020 1.9
34260.458 1.89
34684.479 1.88
35099.877 1.87
35521.795 1.86
35970.466 1.85
36458.001 1.84
36982.976 1.83
37531.071 1.82
38081.479 1.81
38622.533 1.8
39172.252 1.79
39713.612 1.78
40231.099 1.77
40750.940 1.76
41309.895 1.75
41933.521 1.74
42624.109 1.73
43361.040 1.72
44097.484 1.71
44804.330 1.7
45521.507 1.69
46272.230 1.68
47069.181 1.67
47910.740 1.66
48779.914 1.65
49652.688 1.64
50513.993 1.63
51381.522 1.62
52239.718 1.61
53081.367 1.6
53944.736 1.59
54873.452 1.58
55891.065 1.57
56990.031 1.56
58135.097 1.55
59281.112 1.54
60405.234 1.53
61532.945 1.52
62673.244 1.51
63819.799 1.5
64874.121 1.49
65946.313 1.48
67227.484 1.47
68842.642 1.46
70863.613 1.45
73175.768 1.44
75500.451 1.43
77590.987 1.42
79446.652 1.41
81150.985 1.4
82764.568 1.39
84392.366 1.38
86077.104 1.37
87770.768 1.36
89477.270 1.35
91121.049 1.34
92783.052 1.33
94605.133 1.32
96699.044 1.31
99066.241 1.3
101636.696 1.29
104266.512 1.28
106795.464 1.27
109368.279 1.26
112189.804 1.25
115261.445 1.24
118523.847 1.23
121970.975 1.22
125498.752 1.21
129018.838 1.2
132683.178 1.19
136570.010 1.18
140649.853 1.17
144959.377 1.16
149539.212 1.15
154307.115 1.14
159309.274 1.13
164404.590 1.12
169771.086 1.11
175538.950 1.1
181531.892 1.09
187728.284 1.08
194111.747 1.07
200605.171 1.06
207462.400 1.05
215177.330 1.04
223920.528 1.03
232885.295 1.02
242008.151 1.01
251408.394 1
261212.779 0.99
271993.307 0.98
284347.807 0.97
297286.277 0.96
310264.843 0.95
323910.992 0.94
338298.448 0.93
353162.939 0.92
369326.720 0.91
386074.622 0.9
403906.451 0.89
423550.630 0.88
445997.012 0.87
472538.674 0.86
