# TIME w/ HKMBv2, calibrated against CX63840 (2018 Calibration Against CX107797)
# Calibration data taken from 20210311 to 20210601
# Constrained by data from 0.268K to 302.5K, extrapolated elsewhere
# Calibration generated 2021-06-01 13:47:06.308161, verified monotonic
# R[Ohms] T[K]
107.413 325
107.446 324
107.479 323
107.513 322
107.546 321
107.581 320
107.615 319
107.650 318
107.684 317
107.720 316
107.755 315
107.791 314
107.827 313
107.863 312
107.899 311
107.936 310
107.973 309
108.011 308
108.048 307
108.086 306
108.124 305
108.162 304
108.201 303
108.239 302
108.278 301
108.317 300
108.357 299
108.396 298
108.436 297
108.476 296
108.517 295
108.557 294
108.593 293
108.625 292
108.663 291
108.708 290
108.755 289
108.802 288
108.848 287
108.893 286
108.940 285
108.987 284
109.034 283
109.082 282
109.129 281
109.176 280
109.224 279
109.272 278
109.320 277
109.367 276
109.415 275
109.463 274
109.512 273
109.556 272
109.588 271
109.620 270
109.664 269
109.714 268
109.763 267
109.812 266
109.861 265
109.911 264
109.960 263
110.010 262
110.063 261
110.114 260
110.164 259
110.215 258
110.268 257
110.319 256
110.370 255
110.422 254
110.473 253
110.525 252
110.578 251
110.633 250
110.686 249
110.740 248
110.793 247
110.846 246
110.900 245
110.954 244
111.009 243
111.062 242
111.117 241
111.174 240
111.233 239
111.290 238
111.345 237
111.397 236
111.454 235
111.513 234
111.569 233
111.626 232
111.683 231
111.742 230
111.800 229
111.858 228
111.916 227
111.974 226
112.033 225
112.092 224
112.150 223
112.203 222
112.254 221
112.311 220
112.372 219
112.434 218
112.497 217
112.560 216
112.625 215
112.691 214
112.756 213
112.820 212
112.886 211
112.952 210
113.018 209
113.086 208
113.155 207
113.225 206
113.293 205
113.363 204
113.436 203
113.506 202
113.576 201
113.647 200
113.721 199
113.795 198
113.867 197
113.940 196
114.014 195
114.088 194
114.166 193
114.243 192
114.319 191
114.396 190
114.475 189
114.553 188
114.632 187
114.712 186
114.794 185
114.878 184
114.961 183
115.045 182
115.130 181
115.215 180
115.299 179
115.384 178
115.471 177
115.559 176
115.647 175
115.736 174
115.826 173
115.918 172
116.011 171
116.103 170
116.196 169
116.289 168
116.381 167
116.478 166
116.577 165
116.671 164
116.765 163
116.864 162
116.965 161
117.064 160
117.164 159
117.268 158
117.376 157
117.484 156
117.586 155
117.687 154
117.789 153
117.898 152
118.010 151
118.124 150
118.236 149
118.350 148
118.464 147
118.577 146
118.691 145
118.805 144
118.923 143
119.045 142
119.168 141
119.290 140
119.414 139
119.542 138
119.670 137
119.799 136
119.928 135
120.057 134
120.191 133
120.326 132
120.461 131
120.594 130
120.732 129
120.872 128
121.013 127
121.155 126
121.299 125
121.445 124
121.592 123
121.741 122
121.892 121
122.046 120
122.202 119
122.356 118
122.513 117
122.672 116
122.832 115
122.994 114
123.156 113
123.320 112
123.487 111
123.660 110
123.835 109
124.009 108
124.188 107
124.370 106
124.552 105
124.737 104
124.926 103
125.117 102
125.310 101
125.508 100
125.709 99
125.914 98
126.120 97
126.328 96
126.540 95
126.754 94
126.973 93
127.194 92
127.418 91
127.644 90
127.873 89
128.108 88
128.345 87
128.584 86
128.828 85
129.078 84
129.331 83
129.589 82
129.854 81
130.123 80
130.397 79
130.671 78
130.953 77
131.245 76
131.538 75
131.829 74
132.124 73
132.427 72
132.739 71
133.050 70
133.111 69.8
133.177 69.6
133.245 69.4
133.313 69.2
133.384 69
133.451 68.8
133.514 68.6
133.576 68.4
133.643 68.2
133.713 68
133.780 67.8
133.850 67.6
133.923 67.4
133.991 67.2
134.056 67
134.118 66.8
134.186 66.6
134.256 66.4
134.327 66.2
134.400 66
134.474 65.8
134.542 65.6
134.606 65.4
134.676 65.2
134.746 65
134.818 64.8
134.890 64.6
134.961 64.4
135.035 64.2
135.112 64
135.183 63.8
135.254 63.6
135.326 63.4
135.398 63.2
135.471 63
135.550 62.8
135.633 62.6
135.710 62.4
135.784 62.2
135.859 62
135.931 61.8
136.004 61.6
136.081 61.4
136.158 61.2
136.237 61
136.319 60.8
136.401 60.6
136.484 60.4
136.564 60.2
136.639 60
136.716 59.8
136.794 59.6
136.872 59.4
136.954 59.2
137.038 59
137.123 58.8
137.208 58.6
137.291 58.4
137.370 58.2
137.454 58
137.542 57.8
137.625 57.6
137.702 57.4
137.781 57.2
137.870 57
137.959 56.8
138.048 56.6
138.136 56.4
138.227 56.2
138.320 56
138.406 55.8
138.491 55.6
138.578 55.4
138.667 55.2
138.761 55
138.849 54.8
138.932 54.6
139.023 54.4
139.122 54.2
139.216 54
139.307 53.8
139.399 53.6
139.490 53.4
139.584 53.2
139.679 53
139.776 52.8
139.874 52.6
139.973 52.4
140.067 52.2
140.163 52
140.264 51.8
140.362 51.6
140.462 51.4
140.562 51.2
140.661 51
140.762 50.8
140.862 50.6
140.962 50.4
141.067 50.2
141.173 50
141.274 49.8
141.364 49.6
141.464 49.4
141.582 49.2
141.694 49
141.802 48.8
141.916 48.6
142.028 48.4
142.135 48.2
142.243 48
142.359 47.8
142.493 47.6
142.625 47.4
142.735 47.2
142.822 47
142.913 46.8
143.021 46.6
143.133 46.4
143.245 46.2
143.359 46
143.478 45.8
143.600 45.6
143.719 45.4
143.835 45.2
143.954 45
144.078 44.8
144.200 44.6
144.319 44.4
144.437 44.2
144.564 44
144.693 43.8
144.822 43.6
144.955 43.4
145.083 43.2
145.203 43
145.327 42.8
145.461 42.6
145.599 42.4
145.732 42.2
145.864 42
145.991 41.8
146.119 41.6
146.255 41.4
146.391 41.2
146.529 41
146.670 40.8
146.812 40.6
146.948 40.4
147.089 40.2
147.238 40
147.379 39.8
147.526 39.6
147.677 39.4
147.820 39.2
147.971 39
148.117 38.8
148.258 38.6
148.415 38.4
148.570 38.2
148.722 38
148.874 37.8
149.030 37.6
149.195 37.4
149.352 37.2
149.503 37
149.665 36.8
149.832 36.6
149.998 36.4
150.164 36.2
150.326 36
150.493 35.8
150.664 35.6
150.832 35.4
151.007 35.2
151.183 35
151.358 34.8
151.533 34.6
151.711 34.4
151.897 34.2
152.078 34
152.256 33.8
152.438 33.6
152.625 33.4
152.814 33.2
153.004 33
153.194 32.8
153.390 32.6
153.584 32.4
153.773 32.2
153.974 32
154.182 31.8
154.392 31.6
154.595 31.4
154.796 31.2
155.007 31
155.216 30.8
155.424 30.6
155.632 30.4
155.848 30.2
156.069 30
156.181 29.9
156.291 29.8
156.397 29.7
156.510 29.6
156.620 29.5
156.728 29.4
156.838 29.3
156.953 29.2
157.071 29.1
157.182 29
157.297 28.9
157.413 28.8
157.534 28.7
157.653 28.6
157.766 28.5
157.882 28.4
157.999 28.3
158.122 28.2
158.243 28.1
158.369 28
158.490 27.9
158.611 27.8
158.742 27.7
158.862 27.6
158.977 27.5
159.099 27.4
159.226 27.3
159.350 27.2
159.480 27.1
159.615 27
159.758 26.9
159.886 26.8
160.000 26.7
160.133 26.6
160.265 26.5
160.391 26.4
160.522 26.3
160.656 26.2
160.792 26.1
160.933 26
161.077 25.9
161.212 25.8
161.345 25.7
161.481 25.6
161.619 25.5
161.763 25.4
161.905 25.3
162.047 25.2
162.193 25.1
162.337 25
162.480 24.9
162.627 24.8
162.777 24.7
162.918 24.6
163.051 24.5
163.191 24.4
163.340 24.3
163.493 24.2
163.649 24.1
163.808 24
163.962 23.9
164.114 23.8
164.270 23.7
164.426 23.6
164.582 23.5
164.741 23.4
164.901 23.3
165.064 23.2
165.221 23.1
165.377 23
165.537 22.9
165.697 22.8
165.860 22.7
166.027 22.6
166.196 22.5
166.366 22.4
166.538 22.3
166.708 22.2
166.878 22.1
167.054 22
167.229 21.9
167.400 21.8
167.570 21.7
167.751 21.6
167.943 21.5
168.135 21.4
168.315 21.3
168.487 21.2
168.670 21.1
168.861 21
169.051 20.9
169.233 20.8
169.422 20.7
169.614 20.6
169.806 20.5
170.009 20.4
170.209 20.3
170.401 20.2
170.594 20.1
170.789 20
170.991 19.9
171.198 19.8
171.401 19.7
171.611 19.6
171.824 19.5
172.034 19.4
172.242 19.3
172.448 19.2
172.655 19.1
172.860 19
173.082 18.9
173.314 18.8
173.535 18.7
173.758 18.6
173.983 18.5
174.218 18.4
174.449 18.3
174.676 18.2
174.907 18.1
175.139 18
175.378 17.9
175.620 17.8
175.870 17.7
176.119 17.6
176.370 17.5
176.626 17.4
176.879 17.3
177.132 17.2
177.390 17.1
177.653 17
177.915 16.9
178.164 16.8
178.416 16.7
178.702 16.6
178.991 16.5
179.259 16.4
179.532 16.3
179.805 16.2
180.079 16.1
180.350 16
180.615 15.9
180.905 15.8
181.208 15.7
181.509 15.6
181.806 15.5
182.102 15.4
182.403 15.3
182.710 15.2
183.021 15.1
183.311 15
183.592 14.9
183.913 14.8
184.264 14.7
184.609 14.6
184.937 14.5
185.259 14.4
185.591 14.3
185.929 14.2
186.262 14.1
186.561 14
186.868 13.9
187.260 13.8
187.674 13.7
188.053 13.6
188.415 13.5
188.784 13.4
189.166 13.3
189.548 13.2
189.935 13.1
190.309 13
190.675 12.9
191.065 12.8
191.489 12.7
191.933 12.6
192.362 12.5
192.786 12.4
193.206 12.3
193.631 12.2
194.060 12.1
194.487 12
194.920 11.9
195.395 11.8
195.865 11.7
196.294 11.6
196.795 11.5
197.291 11.4
197.783 11.3
198.286 11.2
198.800 11.1
199.304 11
199.803 10.9
200.328 10.8
200.869 10.7
201.422 10.6
201.978 10.5
202.522 10.4
203.071 10.3
203.637 10.2
204.240 10.1
204.857 10
205.465 9.9
206.087 9.8
206.704 9.7
207.325 9.6
207.976 9.5
208.648 9.4
209.342 9.3
210.031 9.2
210.716 9.1
211.409 9
212.109 8.9
212.854 8.8
213.650 8.7
214.473 8.6
215.298 8.5
216.109 8.4
216.918 8.3
217.696 8.2
218.475 8.1
219.341 8
219.529 7.98
219.723 7.96
219.931 7.94
220.140 7.92
220.333 7.9
220.535 7.88
220.741 7.86
220.949 7.84
221.147 7.82
221.336 7.8
221.535 7.78
221.730 7.76
221.929 7.74
222.130 7.72
222.331 7.7
222.531 7.68
222.729 7.66
222.926 7.64
223.125 7.62
223.327 7.6
223.525 7.58
223.724 7.56
223.929 7.54
224.134 7.52
224.334 7.5
224.533 7.48
224.732 7.46
224.930 7.44
225.131 7.42
225.325 7.4
225.507 7.38
225.682 7.36
225.856 7.34
226.033 7.32
226.210 7.3
226.384 7.28
226.559 7.26
226.733 7.24
226.908 7.22
227.086 7.2
227.259 7.18
227.445 7.16
227.665 7.14
227.908 7.12
228.154 7.1
228.404 7.08
228.653 7.06
228.900 7.04
229.148 7.02
229.395 7
229.641 6.98
229.889 6.96
230.137 6.94
230.383 6.92
230.629 6.9
230.878 6.88
231.125 6.86
231.374 6.84
231.623 6.82
231.868 6.8
232.113 6.78
232.361 6.76
232.610 6.74
232.856 6.72
233.103 6.7
233.348 6.68
233.594 6.66
233.840 6.64
234.086 6.62
234.333 6.6
234.580 6.58
234.826 6.56
235.073 6.54
235.317 6.52
235.555 6.5
235.789 6.48
236.024 6.46
236.260 6.44
236.496 6.42
236.731 6.4
236.966 6.38
237.205 6.36
237.439 6.34
237.670 6.32
237.906 6.3
238.143 6.28
238.380 6.26
238.612 6.24
238.849 6.22
239.109 6.2
239.402 6.18
239.713 6.16
240.023 6.14
240.330 6.12
240.640 6.1
240.951 6.08
241.258 6.06
241.570 6.04
241.878 6.02
242.183 6
242.490 5.98
242.799 5.96
243.107 5.94
243.421 5.92
243.729 5.9
244.030 5.88
244.337 5.86
244.648 5.84
244.971 5.82
245.304 5.8
245.643 5.78
245.980 5.76
246.317 5.74
246.655 5.72
246.991 5.7
247.322 5.68
247.656 5.66
247.996 5.64
248.330 5.62
248.666 5.6
249.004 5.58
249.333 5.56
249.670 5.54
250.005 5.52
250.339 5.5
250.676 5.48
251.011 5.46
251.351 5.44
251.690 5.42
252.030 5.4
252.359 5.38
252.686 5.36
253.026 5.34
253.365 5.32
253.692 5.3
254.018 5.28
254.348 5.26
254.699 5.24
255.091 5.22
255.500 5.2
255.898 5.18
256.297 5.16
256.705 5.14
257.114 5.12
257.519 5.1
257.926 5.08
258.332 5.06
258.731 5.04
259.134 5.02
259.543 5
259.945 4.98
260.344 4.96
260.761 4.94
261.189 4.92
261.610 4.9
262.034 4.88
262.458 4.86
262.880 4.84
263.298 4.82
263.726 4.8
264.149 4.78
264.567 4.76
264.985 4.74
265.404 4.72
265.835 4.7
266.285 4.68
266.763 4.66
267.251 4.64
267.729 4.62
268.197 4.6
268.671 4.58
269.164 4.56
269.651 4.54
270.123 4.52
270.607 4.5
271.095 4.48
271.594 4.46
272.075 4.44
272.566 4.42
273.196 4.4
273.971 4.38
274.609 4.36
274.901 4.34
275.151 4.32
275.605 4.3
276.179 4.28
276.756 4.26
277.295 4.24
277.830 4.22
278.383 4.2
278.927 4.18
279.494 4.16
280.081 4.14
280.649 4.12
281.218 4.1
281.805 4.08
282.429 4.06
283.042 4.04
283.644 4.02
284.255 4
284.868 3.98
285.511 3.96
286.150 3.94
286.769 3.92
287.405 3.9
288.067 3.88
288.734 3.86
289.390 3.84
290.036 3.82
290.695 3.8
291.391 3.78
292.105 3.76
292.809 3.74
293.501 3.72
294.200 3.7
294.924 3.68
295.648 3.66
296.398 3.64
297.173 3.62
297.930 3.6
298.690 3.58
299.474 3.56
300.310 3.54
301.128 3.52
301.900 3.5
302.687 3.48
303.479 3.46
304.271 3.44
305.091 3.42
305.941 3.4
306.816 3.38
307.764 3.36
308.663 3.34
309.513 3.32
310.410 3.3
311.334 3.28
312.259 3.26
313.149 3.24
314.042 3.22
314.983 3.2
315.962 3.18
316.931 3.16
317.894 3.14
318.902 3.12
319.937 3.1
320.957 3.08
321.981 3.06
323.050 3.04
324.149 3.02
325.250 3
326.408 2.98
327.561 2.96
328.717 2.94
329.838 2.92
330.907 2.9
332.042 2.88
333.198 2.86
334.358 2.84
335.579 2.82
336.888 2.8
338.203 2.78
339.495 2.76
340.775 2.74
342.072 2.72
343.441 2.7
344.844 2.68
346.189 2.66
347.523 2.64
348.948 2.62
350.335 2.6
351.780 2.58
353.388 2.56
354.919 2.54
356.367 2.52
358.004 2.5
359.695 2.48
361.224 2.46
362.834 2.44
364.628 2.42
366.358 2.4
367.989 2.38
369.704 2.36
371.516 2.34
373.346 2.32
375.195 2.3
377.046 2.28
379.035 2.26
381.079 2.24
383.094 2.22
385.056 2.2
387.126 2.18
389.294 2.16
391.407 2.14
393.744 2.12
396.100 2.1
398.429 2.08
400.986 2.06
403.604 2.04
406.076 2.02
408.582 2
409.859 1.99
411.147 1.98
412.416 1.97
413.668 1.96
414.918 1.95
416.174 1.94
417.425 1.93
418.663 1.92
419.898 1.91
421.144 1.9
422.451 1.89
423.850 1.88
425.343 1.87
426.888 1.86
428.445 1.85
429.997 1.84
431.541 1.83
433.085 1.82
434.629 1.81
436.165 1.8
437.697 1.79
439.230 1.78
440.779 1.77
442.373 1.76
444.032 1.75
445.761 1.74
447.540 1.73
449.346 1.72
451.150 1.71
452.941 1.7
454.722 1.69
456.500 1.68
458.279 1.67
460.060 1.66
461.855 1.65
463.685 1.64
465.572 1.63
467.521 1.62
469.522 1.61
471.564 1.6
473.634 1.59
475.731 1.58
477.861 1.57
480.029 1.56
482.227 1.55
484.446 1.54
486.685 1.53
488.938 1.52
491.213 1.51
493.529 1.5
495.900 1.49
498.333 1.48
500.816 1.47
503.330 1.46
505.860 1.45
508.413 1.44
511.005 1.43
513.644 1.42
516.337 1.41
519.083 1.4
521.876 1.39
524.721 1.38
527.620 1.37
530.565 1.36
533.554 1.35
536.593 1.34
539.686 1.33
542.824 1.32
546.010 1.31
549.249 1.3
552.554 1.29
555.945 1.28
559.422 1.27
562.968 1.26
566.560 1.25
570.198 1.24
573.895 1.23
577.664 1.22
581.515 1.21
585.444 1.2
589.446 1.19
593.520 1.18
597.674 1.17
601.924 1.16
606.280 1.15
610.758 1.14
615.371 1.13
620.117 1.12
624.981 1.11
629.925 1.1
634.906 1.09
639.920 1.08
644.974 1.07
650.151 1.06
655.547 1.05
661.181 1.04
666.978 1.03
672.856 1.02
678.807 1.01
684.851 1
691.070 0.99
697.488 0.98
704.055 0.97
710.747 0.96
717.607 0.95
724.682 0.94
731.991 0.93
739.556 0.92
747.354 0.91
755.318 0.9
763.421 0.89
771.718 0.88
780.266 0.87
789.124 0.86
798.333 0.85
807.849 0.84
817.615 0.83
827.620 0.82
837.947 0.81
848.607 0.8
849.692 0.799
850.780 0.798
851.871 0.797
852.966 0.796
854.065 0.795
855.167 0.794
856.273 0.793
857.382 0.792
858.496 0.791
859.613 0.79
860.734 0.789
861.858 0.788
862.986 0.787
864.118 0.786
865.254 0.785
866.394 0.784
867.537 0.783
868.683 0.782
869.834 0.781
870.989 0.78
872.147 0.779
873.310 0.778
874.477 0.777
875.648 0.776
876.822 0.775
878.000 0.774
879.182 0.773
880.369 0.772
881.559 0.771
882.752 0.77
883.949 0.769
885.151 0.768
886.356 0.767
887.565 0.766
888.780 0.765
889.998 0.764
891.221 0.763
892.448 0.762
893.678 0.761
894.913 0.76
896.151 0.759
897.393 0.758
898.639 0.757
899.889 0.756
901.143 0.755
902.402 0.754
903.666 0.753
904.935 0.752
906.207 0.751
907.484 0.75
908.766 0.749
910.052 0.748
911.343 0.747
912.639 0.746
913.938 0.745
915.243 0.744
916.552 0.743
917.866 0.742
919.184 0.741
920.508 0.74
921.836 0.739
923.168 0.738
924.504 0.737
925.844 0.736
927.191 0.735
928.543 0.734
929.900 0.733
931.261 0.732
932.627 0.731
933.998 0.73
935.374 0.729
936.755 0.728
938.140 0.727
939.529 0.726
940.923 0.725
942.323 0.724
943.728 0.723
945.138 0.722
946.553 0.721
947.975 0.72
949.402 0.719
950.835 0.718
952.273 0.717
953.717 0.716
955.168 0.715
956.622 0.714
958.081 0.713
959.547 0.712
961.019 0.711
962.496 0.71
963.979 0.709
965.468 0.708
966.963 0.707
968.463 0.706
969.969 0.705
971.481 0.704
972.998 0.703
974.520 0.702
976.048 0.701
977.582 0.7
979.122 0.699
980.667 0.698
982.217 0.697
983.774 0.696
985.336 0.695
986.904 0.694
988.478 0.693
990.059 0.692
991.645 0.691
993.236 0.69
994.833 0.689
996.435 0.688
998.044 0.687
999.659 0.686
1001.280 0.685
1002.907 0.684
1004.540 0.683
1006.179 0.682
1007.825 0.681
1009.477 0.68
1011.135 0.679
1012.799 0.678
1014.469 0.677
1016.144 0.676
1017.826 0.675
1019.515 0.674
1021.211 0.673
1022.913 0.672
1024.622 0.671
1026.337 0.67
1028.060 0.669
1029.789 0.668
1031.525 0.667
1033.268 0.666
1035.019 0.665
1036.777 0.664
1038.542 0.663
1040.313 0.662
1042.091 0.661
1043.877 0.66
1045.670 0.659
1047.470 0.658
1049.278 0.657
1051.095 0.656
1052.919 0.655
1054.750 0.654
1056.589 0.653
1058.435 0.652
1060.290 0.651
1062.153 0.65
1064.025 0.649
1065.905 0.648
1067.793 0.647
1069.690 0.646
1071.594 0.645
1073.507 0.644
1075.429 0.643
1077.358 0.642
1079.296 0.641
1081.241 0.64
1083.195 0.639
1085.156 0.638
1087.126 0.637
1089.105 0.636
1091.095 0.635
1093.093 0.634
1095.098 0.633
1097.111 0.632
1099.136 0.631
1101.167 0.63
1103.204 0.629
1105.251 0.628
1107.305 0.627
1109.367 0.626
1111.437 0.625
1113.516 0.624
1115.603 0.623
1117.699 0.622
1119.803 0.621
1121.914 0.62
1124.034 0.619
1126.162 0.618
1128.299 0.617
1130.444 0.616
1132.598 0.615
1134.761 0.614
1136.934 0.613
1139.116 0.612
1141.309 0.611
1143.512 0.61
1145.725 0.609
1147.948 0.608
1150.182 0.607
1152.426 0.606
1154.680 0.605
1156.946 0.604
1159.219 0.603
1161.500 0.602
1163.790 0.601
1166.095 0.6
1168.414 0.599
1170.747 0.598
1173.093 0.597
1175.451 0.596
1177.821 0.595
1180.203 0.594
1182.595 0.593
1184.998 0.592
1187.412 0.591
1189.836 0.59
1192.271 0.589
1194.718 0.588
1197.176 0.587
1199.646 0.586
1202.127 0.585
1204.621 0.584
1207.127 0.583
1209.645 0.582
1212.176 0.581
1214.719 0.58
1217.276 0.579
1219.847 0.578
1222.433 0.577
1225.033 0.576
1227.652 0.575
1230.291 0.574
1232.946 0.573
1235.611 0.572
1238.283 0.571
1240.965 0.57
1243.659 0.569
1246.365 0.568
1249.087 0.567
1251.825 0.566
1254.579 0.565
1257.348 0.564
1260.133 0.563
1262.934 0.562
1265.751 0.561
1268.584 0.56
1271.431 0.559
1274.293 0.558
1277.170 0.557
1280.062 0.556
1282.966 0.555
1285.884 0.554
1288.815 0.553
1291.759 0.552
1294.716 0.551
1297.684 0.55
1300.664 0.549
1303.654 0.548
1306.657 0.547
1309.667 0.546
1312.685 0.545
1315.715 0.544
1318.755 0.543
1321.806 0.542
1324.867 0.541
1327.938 0.54
1331.022 0.539
1334.117 0.538
1337.225 0.537
1340.347 0.536
1343.482 0.535
1346.629 0.534
1349.789 0.533
1352.962 0.532
1356.149 0.531
1359.350 0.53
1362.568 0.529
1365.801 0.528
1369.047 0.527
1372.309 0.526
1375.589 0.525
1378.888 0.524
1382.208 0.523
1385.547 0.522
1388.907 0.521
1392.289 0.52
1395.695 0.519
1399.125 0.518
1402.579 0.517
1406.059 0.516
1409.567 0.515
1413.103 0.514
1416.669 0.513
1420.263 0.512
1423.889 0.511
1427.548 0.51
1431.234 0.509
1434.948 0.508
1438.691 0.507
1442.466 0.506
1446.274 0.505
1450.113 0.504
1453.984 0.503
1457.895 0.502
1461.855 0.501
1465.858 0.5
1469.888 0.499
1473.941 0.498
1478.019 0.497
1482.123 0.496
1486.255 0.495
1490.415 0.494
1494.604 0.493
1498.820 0.492
1503.065 0.491
1507.338 0.49
1511.641 0.489
1515.973 0.488
1520.335 0.487
1524.718 0.486
1529.119 0.485
1533.544 0.484
1537.992 0.483
1542.462 0.482
1546.954 0.481
1551.467 0.48
1556.002 0.479
1560.557 0.478
1565.130 0.477
1569.722 0.476
1574.330 0.475
1578.949 0.474
1583.566 0.473
1588.181 0.472
1592.807 0.471
1597.451 0.47
1602.113 0.469
1606.795 0.468
1611.498 0.467
1616.220 0.466
1620.964 0.465
1625.731 0.464
1630.527 0.463
1635.344 0.462
1640.170 0.461
1645.023 0.46
1649.903 0.459
1654.814 0.458
1659.756 0.457
1664.728 0.456
1669.735 0.455
1674.777 0.454
1679.854 0.453
1684.969 0.452
1690.123 0.451
1695.316 0.45
1700.550 0.449
1705.826 0.448
1711.146 0.447
1716.507 0.446
1721.917 0.445
1727.377 0.444
1732.884 0.443
1738.440 0.442
1744.047 0.441
1749.706 0.44
1755.416 0.439
1761.179 0.438
1766.993 0.437
1772.861 0.436
1778.782 0.435
1784.758 0.434
1790.786 0.433
1796.867 0.432
1803.002 0.431
1809.191 0.43
1815.432 0.429
1821.721 0.428
1828.063 0.427
1834.462 0.426
1840.918 0.425
1847.431 0.424
1853.996 0.423
1860.610 0.422
1867.277 0.421
1873.988 0.42
1880.752 0.419
1887.569 0.418
1894.440 0.417
1901.362 0.416
1908.333 0.415
1915.344 0.414
1922.391 0.413
1929.486 0.412
1936.626 0.411
1943.815 0.41
1951.047 0.409
1958.326 0.408
1965.659 0.407
1973.045 0.406
1980.482 0.405
1987.972 0.404
1995.522 0.403
2003.128 0.402
2010.779 0.401
2018.461 0.4
2026.172 0.399
2033.932 0.398
2041.751 0.397
2049.636 0.396
2057.574 0.395
2065.551 0.394
2073.586 0.393
2081.682 0.392
2089.840 0.391
2098.061 0.39
2106.354 0.389
2114.718 0.388
2123.118 0.387
2131.574 0.386
2140.104 0.385
2148.710 0.384
2157.395 0.383
2166.158 0.382
2174.986 0.381
2183.895 0.38
2192.893 0.379
2201.975 0.378
2211.133 0.377
2220.356 0.376
2229.650 0.375
2239.022 0.374
2248.475 0.373
2258.021 0.372
2267.683 0.371
2277.440 0.37
2287.263 0.369
2297.184 0.368
2307.210 0.367
2317.335 0.366
2327.545 0.365
2337.866 0.364
2348.290 0.363
2358.810 0.362
2369.432 0.361
2380.175 0.36
2391.028 0.359
2401.993 0.358
2413.079 0.357
2424.273 0.356
2435.567 0.355
2446.978 0.354
2458.506 0.353
2470.153 0.352
2481.910 0.351
2493.787 0.35
2505.796 0.349
2517.930 0.348
2530.188 0.347
2542.573 0.346
2555.082 0.345
2567.716 0.344
2580.458 0.343
2593.338 0.342
2606.362 0.341
2619.514 0.34
2632.813 0.339
2646.229 0.338
2659.784 0.337
2673.493 0.336
2687.336 0.335
2701.326 0.334
2715.475 0.333
2729.760 0.332
2744.171 0.331
2758.734 0.33
2773.429 0.329
2788.243 0.328
2803.212 0.327
2818.334 0.326
2833.624 0.325
2849.083 0.324
2864.716 0.323
2880.510 0.322
2896.435 0.321
2912.530 0.32
2928.798 0.319
2945.231 0.318
2961.660 0.317
2978.274 0.316
2995.076 0.315
3012.068 0.314
3029.263 0.313
3046.671 0.312
3064.288 0.311
3082.118 0.31
3100.162 0.309
3118.426 0.308
3136.913 0.307
3155.626 0.306
3174.566 0.305
3193.738 0.304
3213.143 0.303
3232.774 0.302
3252.638 0.301
3272.740 0.3
3293.087 0.299
3313.690 0.298
3334.543 0.297
3355.642 0.296
3376.979 0.295
3398.567 0.294
3420.426 0.293
3442.546 0.292
3464.926 0.291
3487.568 0.29
3510.476 0.289
3533.639 0.288
3557.055 0.287
3580.763 0.286
3604.752 0.285
3629.016 0.284
3653.560 0.283
3678.380 0.282
3703.476 0.281
3728.869 0.28
3754.547 0.279
3780.501 0.278
3806.730 0.277
3833.243 0.276
3860.056 0.275
3887.171 0.274
3914.585 0.273
3942.302 0.272
3970.321 0.271
3998.621 0.27
4027.217 0.269
4056.145 0.268
4085.385 0.267
4114.931 0.266
4144.792 0.265
4174.989 0.264
4205.505 0.263
4236.347 0.262
4267.517 0.261
4299.021 0.26
4330.861 0.259
4363.040 0.258
4395.562 0.257
4428.416 0.256
4461.620 0.255
4495.193 0.254
4529.126 0.253
4563.422 0.252
4598.086 0.251
4633.138 0.25
4668.574 0.249
4704.390 0.248
4740.597 0.247
4777.200 0.246
4814.203 0.245
4851.616 0.244
4889.447 0.243
4927.725 0.242
4966.435 0.241
5005.573 0.24
5045.162 0.239
5085.189 0.238
5125.692 0.237
5166.664 0.236
5208.092 0.235
5250.002 0.234
5292.385 0.233
5335.225 0.232
5378.547 0.231
5422.372 0.23
5466.679 0.229
5511.492 0.228
5556.842 0.227
5602.708 0.226
5649.100 0.225
5695.904 0.224
5743.227 0.223
5791.075 0.222
5839.453 0.221
5888.368 0.22
5937.826 0.219
5987.832 0.218
6038.393 0.217
6089.515 0.216
6141.204 0.215
6193.467 0.214
6246.309 0.213
6299.738 0.212
6353.760 0.211
6408.381 0.21
6463.609 0.209
6519.450 0.208
6575.910 0.207
6632.997 0.206
6690.718 0.205
6749.079 0.204
6808.089 0.203
6867.753 0.202
6928.080 0.201
6989.076 0.2
7050.750 0.199
7113.108 0.198
7176.158 0.197
7239.908 0.196
7304.365 0.195
7369.537 0.194
7435.432 0.193
7502.058 0.192
7569.423 0.191
7637.535 0.19
7706.402 0.189
7776.032 0.188
7846.434 0.187
7917.616 0.186
7989.585 0.185
8062.352 0.184
8135.924 0.183
8210.309 0.182
8285.518 0.181
8361.557 0.18
8438.437 0.179
8516.166 0.178
8594.753 0.177
8674.208 0.176
8754.538 0.175
