# Calibrated Oct 2020 in TIME w/ HKMBv1, calibrated against D6069283
# Constrained by data from 2.88 K to 296.9 K
# Extrapolated the measured voltage offset from the standard calibration to reach lower temperature.
# Used the standard calibration for high temperature points.
# Calibration produced 2020-10-20 18:13:52.562493
# V[volts] T[K]
0.46127 324.000
0.46367 323.000
0.46608 322.000
0.46848 321.000
0.47088 320.000
0.47328 319.000
0.47568 318.000
0.47809 317.000
0.48049 316.000
0.48289 315.000
0.48529 314.000
0.48769 313.000
0.49010 312.000
0.49250 311.000
0.49490 310.000
0.49730 309.000
0.49970 308.000
0.50211 307.000
0.50451 306.000
0.50691 305.000
0.50931 304.000
0.51171 303.000
0.51412 302.000
0.51663 301.000
0.51915 300.000
0.52167 299.000
0.52419 298.000
0.52670 297.000
0.52710 296.880
0.54338 290.145
0.55417 285.683
0.56462 281.363
0.57509 277.025
0.58539 272.757
0.59535 268.580
0.60531 264.390
0.61505 260.293
0.62451 256.301
0.63387 252.348
0.64304 248.471
0.65206 244.649
0.66100 240.863
0.66975 237.141
0.67839 233.467
0.68684 229.869
0.69511 226.330
0.70328 222.837
0.71128 219.415
0.71912 216.040
0.72685 212.715
0.73444 209.449
0.74190 206.221
0.74924 203.045
0.75646 199.920
0.76359 196.819
0.77050 193.808
0.77741 190.799
0.78411 187.868
0.79068 184.982
0.79720 182.124
0.80355 179.333
0.80990 176.524
0.81598 173.837
0.82200 171.173
0.82791 168.549
0.83387 165.889
0.83954 163.359
0.84521 160.832
0.85084 158.303
0.85613 155.917
0.86148 153.505
0.86673 151.138
0.87185 148.816
0.87689 146.522
0.88187 144.256
0.88673 142.039
0.89158 139.823
0.89621 137.688
0.90080 135.570
0.90534 133.472
0.90981 131.412
0.91402 129.457
0.91847 127.374
0.92263 125.424
0.92675 123.495
0.93081 121.591
0.93481 119.712
0.93868 117.869
0.94247 116.063
0.94625 114.260
0.94992 112.512
0.95359 110.764
0.95713 109.059
0.96057 107.383
0.96397 105.733
0.96735 104.084
0.97065 102.480
0.97388 100.910
0.97705 99.359
0.98015 97.824
0.98321 96.309
0.98619 94.833
0.98912 93.365
0.99199 91.926
0.99482 90.509
0.99757 89.116
1.00034 87.713
1.00294 86.388
1.00556 85.054
1.00812 83.742
1.01063 82.448
1.01309 81.179
1.01552 79.924
1.01786 78.697
1.02019 77.481
1.02247 76.286
1.02471 75.108
1.02689 73.954
1.02905 72.808
1.03115 71.690
1.03324 70.581
1.03526 69.496
1.03722 68.436
1.03923 67.350
1.04112 66.329
1.04300 65.308
1.04484 64.304
1.04666 63.307
1.04843 62.334
1.05018 61.372
1.05188 60.434
1.05359 59.492
1.05524 58.578
1.05679 57.713
1.05847 56.777
1.06002 55.914
1.06156 55.053
1.06308 54.199
1.06455 53.371
1.06600 52.549
1.06744 51.735
1.06885 50.934
1.07023 50.151
1.07158 49.375
1.07291 48.611
1.07421 47.862
1.07549 47.122
1.07674 46.396
1.07796 45.689
1.07918 44.982
1.08038 44.287
1.08156 43.605
1.08271 42.934
1.08385 42.274
1.08498 41.617
1.08609 40.975
1.08718 40.344
1.08827 39.720
1.08934 39.110
1.09040 38.508
1.09146 37.910
1.09249 37.327
1.09352 36.754
1.09454 36.194
1.09557 35.632
1.09658 35.081
1.09760 34.535
1.09862 33.998
1.09961 33.485
1.10063 32.967
1.10165 32.453
1.10267 31.960
1.10372 31.468
1.10478 30.979
1.10583 30.501
1.10690 30.029
1.10797 29.566
1.10909 29.110
1.11023 28.656
1.11138 28.215
1.11258 27.783
1.11381 27.354
1.11513 26.931
1.11644 26.518
1.11786 26.111
1.11950 25.706
1.12130 25.307
1.12364 24.920
1.12757 24.533
1.13153 24.155
1.13724 23.781
1.14405 23.417
1.15088 23.053
1.15796 22.703
1.16526 22.353
1.17231 22.014
1.17908 21.665
1.18558 21.331
1.19188 21.005
1.19765 20.680
1.20324 20.362
1.20877 20.047
1.21408 19.737
1.21920 19.434
1.22427 19.134
1.22923 18.837
1.23403 18.549
1.23893 18.256
1.24342 17.987
1.24816 17.704
1.25268 17.435
1.25730 17.162
1.26178 16.899
1.26628 16.638
1.27074 16.383
1.27520 16.130
1.27957 15.885
1.28400 15.637
1.28843 15.394
1.29277 15.157
1.29710 14.924
1.30135 14.697
1.30566 14.469
1.30998 14.245
1.31430 14.024
1.31872 13.808
1.32308 13.596
1.32745 13.388
1.33192 13.182
1.33641 12.977
1.34097 12.777
1.34544 12.581
1.35002 12.386
1.35456 12.195
1.35898 12.007
1.36344 11.824
1.36778 11.641
1.37214 11.459
1.37645 11.283
1.38071 11.109
1.38503 10.936
1.38929 10.768
1.39353 10.601
1.39777 10.435
1.40204 10.274
1.40622 10.116
1.41035 9.962
1.41465 9.808
1.41884 9.659
1.42304 9.510
1.42740 9.362
1.43164 9.219
1.43589 9.077
1.44026 8.936
1.44466 8.799
1.44909 8.663
1.45346 8.529
1.45788 8.399
1.46240 8.269
1.46689 8.140
1.47124 8.016
1.47562 7.895
1.48007 7.773
1.48446 7.652
1.48870 7.537
1.49302 7.420
1.49735 7.306
1.50174 7.190
1.50600 7.078
1.51014 6.969
1.51429 6.862
1.51841 6.756
1.52243 6.652
1.52630 6.552
1.53037 6.447
1.53437 6.345
1.53807 6.251
1.54172 6.158
1.54550 6.063
1.54926 5.967
1.55314 5.869
1.55665 5.781
1.56002 5.696
1.56351 5.608
1.56712 5.518
1.57054 5.432
1.57383 5.348
1.57694 5.269
1.58007 5.188
1.58315 5.109
1.58635 5.026
1.58929 4.948
1.59208 4.874
1.59486 4.799
1.59753 4.727
1.60018 4.654
1.60277 4.582
1.60530 4.510
1.60786 4.439
1.61027 4.371
1.61254 4.306
1.61484 4.241
1.61719 4.172
1.61940 4.107
1.62158 4.044
1.62368 3.982
1.62577 3.920
1.62776 3.861
1.62990 3.797
1.63193 3.736
1.63357 3.687
1.63548 3.629
1.63742 3.570
1.63913 3.518
1.64090 3.465
1.64269 3.410
1.64440 3.357
1.64606 3.305
1.64770 3.253
1.64961 3.191
1.65099 3.148
1.65210 3.112
1.65367 3.061
1.65517 3.012
1.65649 2.968
1.65811 2.913
1.65896 2.884
1.66000 2.850
1.66145 2.800
1.66287 2.750
1.66429 2.700
1.66569 2.650
1.66709 2.600
1.66844 2.550
1.66978 2.500
1.67111 2.450
1.67241 2.400
1.67369 2.350
1.67494 2.300
1.67618 2.250
1.67740 2.200
1.67858 2.150
1.67973 2.100
1.68088 2.050
1.68202 2.000
