# Calibrated July 2019 in Bemco w/ LS218, calibrated against D6069283
# Constrained by data from 4.98 K to 292.9 K
# Extrapolated the measured voltage offset from the standard calibration to reach lower temperature.
# Used the standard calibration for high temperature points.
# Calibration produced 2019-07-19 13:31:24.360818
# V[volts] T[K]
0.50408 324.000
0.50640 323.000
0.50872 322.000
0.51104 321.000
0.51336 320.000
0.51568 319.000
0.51800 318.000
0.52032 317.000
0.52264 316.000
0.52496 315.000
0.52728 314.000
0.52959 313.000
0.53191 312.000
0.53423 311.000
0.53654 310.000
0.53885 309.000
0.54117 308.000
0.54348 307.000
0.54579 306.000
0.54810 305.000
0.55041 304.000
0.55272 303.000
0.55502 302.000
0.55733 301.000
0.55964 300.000
0.56194 299.000
0.56424 298.000
0.56657 297.000
0.56890 296.000
0.57123 295.000
0.57356 294.000
0.57589 293.000
0.57624 292.861
0.58858 287.500
0.59778 283.497
0.60666 279.629
0.61539 275.818
0.62396 272.070
0.63234 268.387
0.64061 264.743
0.64877 261.139
0.65678 257.593
0.66464 254.108
0.67239 250.662
0.67999 247.274
0.68749 243.923
0.69488 240.611
0.70218 237.336
0.70932 234.122
0.71636 230.945
0.72330 227.807
0.73009 224.729
0.73678 221.689
0.74337 218.689
0.74987 215.724
0.75625 212.804
0.76254 209.921
0.76872 207.078
0.77481 204.275
0.78084 201.488
0.78678 198.740
0.79257 196.056
0.79825 193.411
0.80389 190.785
0.80943 188.197
0.81487 185.651
0.82026 183.121
0.82555 180.632
0.83074 178.184
0.83582 175.779
0.84086 173.392
0.84580 171.045
0.85063 168.742
0.85541 166.455
0.86015 164.186
0.86478 161.961
0.86932 159.776
0.87380 157.608
0.87824 155.461
0.88257 153.357
0.88680 151.296
0.89103 149.228
0.89516 147.204
0.89919 145.225
0.90316 143.265
0.90710 141.320
0.91098 139.394
0.91481 137.490
0.91853 135.631
0.92215 133.817
0.92578 131.995
0.92936 130.193
0.93283 128.438
0.93624 126.702
0.93962 124.986
0.94294 123.286
0.94621 121.610
0.94944 119.955
0.95260 118.320
0.95567 116.731
0.95870 115.162
0.96171 113.587
0.96467 112.035
0.96754 110.531
0.97036 109.044
0.97318 107.553
0.97594 106.087
0.97861 104.667
0.98127 103.243
0.98388 101.841
0.98645 100.461
0.98901 99.077
0.99146 97.743
0.99387 96.432
0.99629 95.113
0.99865 93.817
1.00095 92.545
1.00321 91.297
1.00543 90.072
1.00763 88.843
1.00978 87.638
1.01188 86.463
1.01398 85.281
1.01603 84.118
1.01804 82.976
1.01999 81.862
1.02190 80.772
1.02381 79.680
1.02571 78.586
1.02756 77.520
1.02936 76.479
1.03116 75.433
1.03290 74.413
1.03464 73.393
1.03634 72.397
1.03799 71.427
1.03964 70.456
1.04124 69.508
1.04284 68.558
1.04438 67.636
1.04594 66.709
1.04749 65.781
1.04894 64.911
1.05039 64.038
1.05184 63.161
1.05324 62.316
1.05464 61.468
1.05605 60.620
1.05740 59.801
1.05870 59.009
1.06000 58.214
1.06130 57.418
1.06260 56.622
1.06385 55.856
1.06505 55.118
1.06625 54.379
1.06745 53.639
1.06865 52.898
1.06980 52.186
1.07095 51.474
1.07210 50.760
1.07320 50.075
1.07430 49.386
1.07535 48.730
1.07641 48.070
1.07746 47.412
1.07846 46.785
1.07946 46.155
1.08046 45.527
1.08145 44.900
1.08240 44.303
1.08335 43.704
1.08430 43.105
1.08520 42.538
1.08610 41.973
1.08699 41.410
1.08789 40.845
1.08879 40.281
1.08969 39.720
1.09053 39.192
1.09138 38.664
1.09223 38.138
1.09308 37.617
1.09393 37.096
1.09473 36.606
1.09553 36.123
1.09638 35.610
1.09724 35.101
1.09804 34.625
1.09884 34.156
1.09960 33.718
1.10035 33.284
1.10116 32.824
1.10196 32.369
1.10278 31.921
1.10357 31.483
1.10438 31.048
1.10514 30.649
1.10589 30.254
1.10671 29.839
1.10752 29.436
1.10837 29.019
1.10923 28.612
1.11002 28.244
1.11090 27.860
1.11180 27.472
1.11271 27.104
1.11369 26.734
1.11470 26.370
1.11572 26.017
1.11702 25.651
1.11818 25.318
1.11945 24.991
1.12158 24.640
1.12389 24.301
1.12647 23.969
1.13139 23.648
1.13630 23.328
1.14126 23.013
1.14797 22.702
1.15491 22.391
1.16174 22.085
1.16785 21.787
1.17356 21.495
1.17909 21.206
1.18434 20.915
1.18895 20.630
1.19347 20.352
1.19795 20.076
1.20246 19.791
1.20645 19.535
1.21057 19.270
1.21460 19.009
1.21856 18.751
1.22249 18.495
1.22630 18.246
1.23006 18.000
1.23381 17.757
1.23756 17.514
1.24126 17.278
1.24495 17.043
1.24870 16.809
1.25237 16.582
1.25607 16.356
1.25976 16.133
1.26345 15.914
1.26712 15.699
1.27066 15.492
1.27430 15.285
1.27796 15.076
1.28165 14.869
1.28530 14.666
1.28892 14.465
1.29253 14.270
1.29602 14.080
1.29967 13.886
1.30326 13.698
1.30676 13.516
1.31037 13.334
1.31400 13.153
1.31761 12.974
1.32133 12.796
1.32500 12.621
1.32866 12.449
1.33235 12.282
1.33603 12.115
1.33977 11.948
1.34339 11.791
1.34699 11.634
1.35068 11.474
1.35446 11.315
1.35807 11.164
1.36160 11.016
1.36537 10.863
1.36905 10.715
1.37260 10.571
1.37626 10.426
1.37992 10.284
1.38353 10.144
1.38703 10.008
1.39067 9.873
1.39438 9.737
1.39796 9.605
1.40147 9.478
1.40522 9.348
1.40888 9.221
1.41249 9.097
1.41621 8.971
1.41996 8.849
1.42354 8.733
1.42727 8.613
1.43093 8.495
1.43465 8.381
1.43841 8.266
1.44209 8.153
1.44570 8.043
1.44925 7.938
1.45298 7.828
1.45659 7.722
1.46008 7.619
1.46358 7.516
1.46716 7.413
1.47064 7.314
1.47410 7.215
1.47783 7.108
1.48087 7.020
1.48426 6.925
1.48758 6.832
1.49092 6.738
1.49466 6.634
1.49740 6.557
1.50043 6.473
1.50388 6.378
1.50701 6.292
1.51010 6.208
1.51318 6.125
1.51624 6.043
1.51928 5.961
1.52251 5.874
1.52547 5.794
1.52813 5.723
1.53096 5.648
1.53397 5.567
1.53695 5.487
1.54010 5.402
1.54226 5.344
1.54521 5.264
1.54756 5.201
1.55021 5.129
1.55326 5.045
1.55565 4.980
1.55676 4.950
1.55859 4.900
1.56041 4.850
1.56223 4.800
1.56403 4.750
1.56583 4.700
1.56764 4.650
1.56943 4.600
1.57121 4.550
1.57298 4.500
1.57475 4.450
1.57652 4.400
1.57824 4.350
1.57997 4.300
1.58170 4.250
1.58341 4.200
1.58509 4.150
1.58675 4.100
1.58842 4.050
1.59008 4.000
1.59172 3.950
1.59335 3.900
1.59496 3.850
1.59656 3.800
1.59816 3.750
1.59973 3.700
1.60131 3.650
1.60287 3.600
1.60441 3.550
1.60595 3.500
1.60748 3.450
1.60900 3.400
1.61050 3.350
1.61200 3.300
1.61347 3.250
1.61494 3.200
1.61640 3.150
1.61784 3.100
1.61928 3.050
1.62071 3.000
1.62212 2.950
1.62353 2.900
1.62493 2.850
1.62633 2.800
1.62773 2.750
1.62912 2.700
1.63050 2.650
1.63187 2.600
1.63324 2.550
1.63459 2.500
1.63592 2.450
1.63724 2.400
1.63855 2.350
1.63983 2.300
1.64109 2.250
1.64233 2.200
1.64356 2.150
1.64475 2.100
1.64594 2.050
1.64709 2.000
