# Calibrated July 2019 in Bemco w/ LS218, calibrated against D6069283
# Constrained by data from 4.98 K to 292.9 K
# Extrapolated the measured voltage offset from the standard calibration to reach lower temperature.
# Used the standard calibration for high temperature points.
# Calibration produced 2019-07-19 13:31:50.320580
# V[volts] T[K]
0.46127 324.000
0.46367 323.000
0.46608 322.000
0.46848 321.000
0.47088 320.000
0.47328 319.000
0.47568 318.000
0.47809 317.000
0.48049 316.000
0.48289 315.000
0.48529 314.000
0.48769 313.000
0.49010 312.000
0.49250 311.000
0.49490 310.000
0.49730 309.000
0.49970 308.000
0.50211 307.000
0.50451 306.000
0.50691 305.000
0.50931 304.000
0.51171 303.000
0.51412 302.000
0.51652 301.000
0.51892 300.000
0.52132 299.000
0.52372 298.000
0.52621 297.000
0.52868 296.000
0.53116 295.000
0.53363 294.000
0.53610 293.000
0.53649 292.861
0.54942 287.500
0.55907 283.497
0.56839 279.629
0.57756 275.818
0.58657 272.070
0.59534 268.387
0.60401 264.743
0.61258 261.139
0.62100 257.593
0.62926 254.108
0.63743 250.662
0.64544 247.274
0.65336 243.923
0.66119 240.611
0.66890 237.336
0.67646 234.122
0.68393 230.945
0.69129 227.807
0.69849 224.729
0.70561 221.689
0.71261 218.689
0.71951 215.724
0.72631 212.804
0.73301 209.921
0.73959 207.078
0.74607 204.275
0.75252 201.488
0.75886 198.740
0.76503 196.056
0.77111 193.411
0.77715 190.785
0.78306 188.197
0.78887 185.651
0.79464 183.121
0.80031 180.632
0.80586 178.184
0.81131 175.779
0.81671 173.392
0.82202 171.045
0.82721 168.742
0.83234 166.455
0.83743 164.186
0.84242 161.961
0.84732 159.776
0.85214 157.608
0.85691 155.461
0.86158 153.357
0.86616 151.296
0.87073 149.228
0.87518 147.204
0.87953 145.225
0.88384 143.265
0.88811 141.320
0.89233 139.394
0.89646 137.490
0.90049 135.631
0.90443 133.817
0.90838 131.995
0.91229 130.193
0.91605 128.438
0.91976 126.702
0.92344 124.986
0.92707 123.286
0.93066 121.610
0.93420 119.955
0.93764 118.320
0.94097 116.731
0.94427 115.162
0.94759 113.587
0.95085 112.035
0.95402 110.531
0.95711 109.044
0.96018 107.553
0.96320 106.087
0.96612 104.667
0.96906 103.243
0.97195 101.841
0.97479 100.461
0.97761 99.077
0.98031 97.743
0.98297 96.432
0.98564 95.113
0.98823 93.817
0.99078 92.545
0.99328 91.297
0.99573 90.072
0.99817 88.843
1.00055 87.638
1.00287 86.463
1.00519 85.281
1.00747 84.118
1.00970 82.976
1.01187 81.862
1.01399 80.772
1.01610 79.680
1.01820 78.586
1.02025 77.520
1.02224 76.479
1.02425 75.433
1.02619 74.413
1.02812 73.393
1.03000 72.397
1.03183 71.427
1.03367 70.456
1.03544 69.508
1.03720 68.558
1.03891 67.636
1.04063 66.709
1.04235 65.781
1.04396 64.911
1.04556 64.038
1.04716 63.161
1.04870 62.316
1.05024 61.468
1.05179 60.620
1.05328 59.801
1.05471 59.009
1.05615 58.214
1.05758 57.418
1.05901 56.622
1.06038 55.856
1.06170 55.118
1.06302 54.379
1.06433 53.639
1.06564 52.898
1.06690 52.186
1.06816 51.474
1.06941 50.760
1.07061 50.075
1.07182 49.386
1.07296 48.730
1.07410 48.070
1.07524 47.412
1.07631 46.785
1.07740 46.155
1.07847 45.527
1.07955 44.900
1.08057 44.303
1.08160 43.704
1.08262 43.105
1.08359 42.538
1.08455 41.973
1.08552 41.410
1.08649 40.845
1.08746 40.281
1.08843 39.720
1.08935 39.192
1.09027 38.664
1.09119 38.138
1.09210 37.617
1.09303 37.096
1.09390 36.606
1.09477 36.123
1.09570 35.610
1.09663 35.101
1.09750 34.625
1.09838 34.156
1.09922 33.718
1.10005 33.284
1.10094 32.824
1.10183 32.369
1.10276 31.921
1.10367 31.483
1.10460 31.048
1.10546 30.649
1.10633 30.254
1.10727 29.839
1.10821 29.436
1.10923 29.019
1.11025 28.612
1.11121 28.244
1.11227 27.860
1.11339 27.472
1.11452 27.104
1.11572 26.734
1.11698 26.370
1.11835 26.017
1.12010 25.651
1.12177 25.318
1.12376 24.991
1.12732 24.640
1.13113 24.301
1.13516 23.969
1.14144 23.648
1.14771 23.328
1.15389 23.013
1.16054 22.702
1.16726 22.391
1.17387 22.085
1.17999 21.787
1.18582 21.495
1.19153 21.206
1.19705 20.915
1.20218 20.630
1.20721 20.352
1.21219 20.076
1.21727 19.791
1.22178 19.535
1.22646 19.270
1.23105 19.009
1.23556 18.751
1.24005 18.495
1.24442 18.246
1.24873 18.000
1.25302 17.757
1.25731 17.514
1.26154 17.278
1.26576 17.043
1.27003 16.809
1.27421 16.582
1.27841 16.356
1.28260 16.133
1.28677 15.914
1.29089 15.699
1.29488 15.492
1.29893 15.285
1.30302 15.076
1.30711 14.869
1.31114 14.666
1.31514 14.465
1.31911 14.270
1.32294 14.080
1.32693 13.886
1.33083 13.698
1.33465 13.516
1.33856 13.334
1.34249 13.153
1.34639 12.974
1.35039 12.796
1.35436 12.621
1.35829 12.449
1.36225 12.282
1.36619 12.115
1.37021 11.948
1.37409 11.791
1.37795 11.634
1.38190 11.474
1.38595 11.315
1.38981 11.164
1.39359 11.016
1.39762 10.863
1.40157 10.715
1.40537 10.571
1.40931 10.426
1.41324 10.284
1.41713 10.144
1.42090 10.008
1.42484 9.873
1.42885 9.737
1.43273 9.605
1.43654 9.478
1.44060 9.348
1.44457 9.221
1.44849 9.097
1.45254 8.971
1.45662 8.849
1.46053 8.733
1.46460 8.613
1.46861 8.495
1.47267 8.381
1.47677 8.266
1.48081 8.153
1.48475 8.043
1.48864 7.938
1.49273 7.828
1.49668 7.722
1.50050 7.619
1.50434 7.516
1.50825 7.413
1.51206 7.314
1.51584 7.215
1.51991 7.108
1.52325 7.020
1.52694 6.925
1.53054 6.832
1.53417 6.738
1.53823 6.634
1.54122 6.557
1.54452 6.473
1.54824 6.378
1.55162 6.292
1.55496 6.208
1.55828 6.125
1.56158 6.043
1.56485 5.961
1.56831 5.874
1.57149 5.794
1.57437 5.723
1.57743 5.648
1.58069 5.567
1.58391 5.487
1.58726 5.402
1.58958 5.344
1.59274 5.264
1.59527 5.201
1.59812 5.129
1.60139 5.045
1.60397 4.980
1.60520 4.950
1.60716 4.900
1.60911 4.850
1.61105 4.800
1.61298 4.750
1.61491 4.700
1.61683 4.650
1.61876 4.600
1.62065 4.550
1.62254 4.500
1.62444 4.450
1.62632 4.400
1.62818 4.350
1.63002 4.300
1.63187 4.250
1.63371 4.200
1.63550 4.150
1.63729 4.100
1.63908 4.050
1.64085 4.000
1.64260 3.950
1.64433 3.900
1.64607 3.850
1.64778 3.800
1.64948 3.750
1.65116 3.700
1.65284 3.650
1.65451 3.600
1.65615 3.550
1.65777 3.500
1.65939 3.450
1.66100 3.400
1.66258 3.350
1.66415 3.300
1.66572 3.250
1.66727 3.200
1.66880 3.150
1.67032 3.100
1.67183 3.050
1.67333 3.000
1.67481 2.950
1.67627 2.900
1.67773 2.850
1.67917 2.800
1.68059 2.750
1.68198 2.700
1.68338 2.650
1.68476 2.600
1.68609 2.550
1.68741 2.500
1.68873 2.450
1.69001 2.400
1.69128 2.350
1.69251 2.300
1.69373 2.250
1.69494 2.200
1.69610 2.150
1.69723 2.100
1.69836 2.050
1.69949 2.000
