# Calibrated July 2019 in Bemco w/ LS218, calibrated against D6069283
# Constrained by data from 4.98 K to 292.9 K
# Extrapolated the measured voltage offset from the standard calibration to reach lower temperature.
# Used the standard calibration for high temperature points.
# Calibration produced 2019-07-19 13:31:35.551201
# V[volts] T[K]
0.46127 324.000
0.46367 323.000
0.46608 322.000
0.46848 321.000
0.47088 320.000
0.47328 319.000
0.47568 318.000
0.47809 317.000
0.48049 316.000
0.48289 315.000
0.48529 314.000
0.48769 313.000
0.49010 312.000
0.49250 311.000
0.49490 310.000
0.49730 309.000
0.49970 308.000
0.50211 307.000
0.50451 306.000
0.50691 305.000
0.50931 304.000
0.51171 303.000
0.51412 302.000
0.51652 301.000
0.51892 300.000
0.52132 299.000
0.52372 298.000
0.52624 297.000
0.52875 296.000
0.53126 295.000
0.53377 294.000
0.53628 293.000
0.53672 292.861
0.54969 287.500
0.55939 283.497
0.56876 279.629
0.57797 275.818
0.58703 272.070
0.59581 268.387
0.60449 264.743
0.61308 261.139
0.62150 257.593
0.62976 254.108
0.63793 250.662
0.64594 247.274
0.65385 243.923
0.66168 240.611
0.66938 237.336
0.67694 234.122
0.68441 230.945
0.69176 227.807
0.69895 224.729
0.70606 221.689
0.71306 218.689
0.71995 215.724
0.72674 212.804
0.73345 209.921
0.74002 207.078
0.74649 204.275
0.75294 201.488
0.75927 198.740
0.76543 196.056
0.77151 193.411
0.77754 190.785
0.78345 188.197
0.78926 185.651
0.79502 183.121
0.80069 180.632
0.80624 178.184
0.81169 175.779
0.81709 173.392
0.82239 171.045
0.82758 168.742
0.83271 166.455
0.83780 164.186
0.84278 161.961
0.84768 159.776
0.85249 157.608
0.85725 155.461
0.86192 153.357
0.86650 151.296
0.87106 149.228
0.87551 147.204
0.87985 145.225
0.88415 143.265
0.88842 141.320
0.89263 139.394
0.89676 137.490
0.90078 135.631
0.90471 133.817
0.90866 131.995
0.91256 130.193
0.91632 128.438
0.92002 126.702
0.92368 124.986
0.92731 123.286
0.93089 121.610
0.93442 119.955
0.93785 118.320
0.94118 116.731
0.94448 115.162
0.94778 113.587
0.95104 112.035
0.95420 110.531
0.95728 109.044
0.96034 107.553
0.96335 106.087
0.96627 104.667
0.96919 103.243
0.97208 101.841
0.97491 100.461
0.97772 99.077
0.98042 97.743
0.98306 96.432
0.98572 95.113
0.98831 93.817
0.99085 92.545
0.99334 91.297
0.99578 90.072
0.99820 88.843
1.00057 87.638
1.00288 86.463
1.00520 85.281
1.00746 84.118
1.00967 82.976
1.01183 81.862
1.01394 80.772
1.01605 79.680
1.01813 78.586
1.02016 77.520
1.02214 76.479
1.02413 75.433
1.02606 74.413
1.02798 73.393
1.02985 72.397
1.03167 71.427
1.03349 70.456
1.03525 69.508
1.03701 68.558
1.03871 67.636
1.04042 66.709
1.04213 65.781
1.04373 64.911
1.04532 64.038
1.04692 63.161
1.04845 62.316
1.04999 61.468
1.05154 60.620
1.05302 59.801
1.05445 59.009
1.05589 58.214
1.05731 57.418
1.05874 56.622
1.06011 55.856
1.06143 55.118
1.06275 54.379
1.06407 53.639
1.06538 52.898
1.06663 52.186
1.06789 51.474
1.06915 50.760
1.07035 50.075
1.07156 49.386
1.07270 48.730
1.07385 48.070
1.07499 47.412
1.07607 46.785
1.07716 46.155
1.07824 45.527
1.07932 44.900
1.08035 44.303
1.08138 43.704
1.08241 43.105
1.08339 42.538
1.08436 41.973
1.08534 41.410
1.08631 40.845
1.08729 40.281
1.08827 39.720
1.08919 39.192
1.09012 38.664
1.09105 38.138
1.09197 37.617
1.09290 37.096
1.09378 36.606
1.09466 36.123
1.09560 35.610
1.09653 35.101
1.09742 34.625
1.09830 34.156
1.09915 33.718
1.09998 33.284
1.10089 32.824
1.10178 32.369
1.10272 31.921
1.10364 31.483
1.10457 31.048
1.10544 30.649
1.10632 30.254
1.10727 29.839
1.10821 29.436
1.10924 29.019
1.11026 28.612
1.11122 28.244
1.11227 27.860
1.11337 27.472
1.11447 27.104
1.11563 26.734
1.11682 26.370
1.11809 26.017
1.11968 25.651
1.12114 25.318
1.12287 24.991
1.12614 24.640
1.12968 24.301
1.13344 23.969
1.13945 23.648
1.14546 23.328
1.15140 23.013
1.15784 22.702
1.16437 22.391
1.17083 22.085
1.17684 21.787
1.18259 21.495
1.18823 21.206
1.19367 20.915
1.19869 20.630
1.20358 20.352
1.20842 20.076
1.21333 19.791
1.21768 19.535
1.22217 19.270
1.22656 19.009
1.23087 18.751
1.23515 18.495
1.23930 18.246
1.24340 18.000
1.24748 17.757
1.25155 17.514
1.25555 17.278
1.25954 17.043
1.26359 16.809
1.26754 16.582
1.27150 16.356
1.27546 16.133
1.27940 15.914
1.28329 15.699
1.28706 15.492
1.29089 15.285
1.29475 15.076
1.29863 14.869
1.30245 14.666
1.30624 14.465
1.31000 14.270
1.31363 14.080
1.31743 13.886
1.32114 13.698
1.32477 13.516
1.32849 13.334
1.33225 13.153
1.33598 12.974
1.33981 12.796
1.34360 12.621
1.34737 12.449
1.35117 12.282
1.35496 12.115
1.35883 11.948
1.36256 11.791
1.36629 11.634
1.37011 11.474
1.37403 11.315
1.37778 11.164
1.38145 11.016
1.38537 10.863
1.38922 10.715
1.39292 10.571
1.39677 10.426
1.40062 10.284
1.40442 10.144
1.40811 10.008
1.41198 9.873
1.41592 9.737
1.41973 9.605
1.42348 9.478
1.42748 9.348
1.43139 9.221
1.43526 9.097
1.43926 8.971
1.44328 8.849
1.44714 8.733
1.45117 8.613
1.45514 8.495
1.45915 8.381
1.46321 8.266
1.46720 8.153
1.47110 8.043
1.47495 7.938
1.47900 7.828
1.48291 7.722
1.48670 7.619
1.49050 7.516
1.49437 7.413
1.49814 7.314
1.50189 7.215
1.50592 7.108
1.50923 7.020
1.51289 6.925
1.51646 6.832
1.52006 6.738
1.52408 6.634
1.52704 6.557
1.53031 6.473
1.53399 6.378
1.53734 6.292
1.54064 6.208
1.54393 6.125
1.54720 6.043
1.55043 5.961
1.55385 5.874
1.55700 5.794
1.55984 5.723
1.56287 5.648
1.56609 5.567
1.56927 5.487
1.57258 5.402
1.57487 5.344
1.57799 5.264
1.58048 5.201
1.58329 5.129
1.58653 5.045
1.58907 4.980
1.59026 4.950
1.59218 4.900
1.59410 4.850
1.59601 4.800
1.59791 4.750
1.59981 4.700
1.60170 4.650
1.60360 4.600
1.60546 4.550
1.60732 4.500
1.60918 4.450
1.61103 4.400
1.61286 4.350
1.61468 4.300
1.61650 4.250
1.61831 4.200
1.62007 4.150
1.62183 4.100
1.62359 4.050
1.62534 4.000
1.62706 3.950
1.62877 3.900
1.63048 3.850
1.63217 3.800
1.63384 3.750
1.63550 3.700
1.63716 3.650
1.63880 3.600
1.64042 3.550
1.64202 3.500
1.64362 3.450
1.64520 3.400
1.64677 3.350
1.64832 3.300
1.64987 3.250
1.65140 3.200
1.65291 3.150
1.65442 3.100
1.65591 3.050
1.65739 3.000
1.65886 2.950
1.66031 2.900
1.66175 2.850
1.66318 2.800
1.66458 2.750
1.66597 2.700
1.66735 2.650
1.66872 2.600
1.67004 2.550
1.67135 2.500
1.67266 2.450
1.67393 2.400
1.67519 2.350
1.67641 2.300
1.67762 2.250
1.67882 2.200
1.67997 2.150
1.68110 2.100
1.68222 2.050
1.68333 2.000
